1780
1774
1749
1727
1697
1667
1642
1616
1599
1588
1580
1581
1582
1588
1600
1613
1625
1637
1648
1654
1664
1667
1668
1669
1667
1667
1665
1664
1664
1666
1664
1664
1667
1671
1673
1675
1679
1679
1680
1679
1678
1676
1677
1675
1677
1679
1680
1686
1694
1700
1707
1713
1719
1728
1731
1741
1742
1745
1751
1754
1758
1760
1760
1760
1759
1757
1757
1758
1754
1753
1757
1755
1760
1763
1773
1776
1787
1793
1803
1808
1814
1824
1837
1841
1848
1853
1856
1858
1860
1861
1857
1857
1856
1857
1857
1861
1866
1869
1873
1877
1889
1899
1905
1917
1926
1936
1945
1953
1963
1968
1971
1977
1981
1984
1984
1986
1990
1994
1999
2001
2006
2017
2025
2032
2043
2059
2068
2078
2086
2091
2094
2096
2095
2095
2090
2085
2082
2078
2074
2070
2068
2067
2067
2067
2069
2071
2070
2070
2071
2074
2071
2071
2067
2064
2063
2057
2056
2044
2039
2035
2030
2027
2020
2011
2002
1998
1984
1972
1960
1945
1931
1915
1903
1887
1875
1862
1855
1840
1830
1819
1808
1797
1786
1776
1763
1751
1743
1733
1726
1713
1707
1693
1683
1676
1665
1652
1646
1632
1619
1613
1600
1590
1581
1567
1557
1547
1533
1523
1520
1512
1505
1501
1497
1497
1495
1492
1493
1490
1490
1489
1487
1479
1477
1472
1469
1463
1459
1456
1455
1454
1451
1452
1455
1456
1459
1460
1463
1469
1469
1472
1470
1469
1466
1461
1456
1450
1443
1436
1431
1427
1425
1424
1425
1425
1428
1431
1437
1443
1446
1452
1455
1456
1455
1454
1449
1446
1444
1439
1435
1435
1437
1438
1439
1442
1450
1456
1461
1470
1472
1473
1474
1472
1470
1465
1459
1454
1451
1447
1446
1446
1453
1457
1467
1477
1488
1504
1518
1526
1543
1549
1552
1552
1552
1549
1541
1529
1522
1520
1512
1513
1509
1509
1514
1520
1523
1535
1548
1555
1566
1574
1579
1583
1585
1584
1584
1579
1574
1570
1563
1557
1552
1552
1552
1549
1551
1551
1552
1553
1558
1565
1568
1574
1581
1584
1590
1594
1597
1600
1601
1601
1603
1602
1604
1603
1602
1600
1599
1599
1597
1595
1593
1593
1591
1589
1587
1586
1586
1584
1584
1581
1578
1578
1570
1571
1568
1563
1563
1563
1562
1566
1567
1571
1575
1579
1584
1584
1584
1585
1584
1582
1577
1577
1569
1565
1562
1562
1563
1563
1569
1573
1573
1578
1580
1579
1575
1573
1568
1559
1553
1546
1535
1530
1526
1523
1523
1523
1529
1531
1541
1546
1549
1552
1552
1553
1553
1555
1554
1553
1554
1554
1553
1552
1552
1551
1548
1546
1543
1542
1540
1533
1529
1528
1524
1523
1521
1520
1521
1521
1520
1520
1520
1517
1514
1511
1509
1506
1505
1503
1506
1506
1510
1510
1515
1519
1520
1526
1530
1535
1543
1552
1553
1554
1559
1556
1552
1552
1543
1533
1526
1521
1515
1510
1507
1505
1505
1505
1504
1510
1514
1520
1523
1535
1545
1552
1555
1559
1566
1567
1567
1567
1565
1559
1555
1552
1549
1543
1534
1529
1526
1523
1521
1521
1520
1520
1520
1521
1523
1526
1526
1529
1530
1533
1532
1535
1534
1541
1535
1542
1543
1540
1531
1533
1533
1529
1529
1526
1527
1528
1526
1524
1533
1532
1531
1533
1529
1533
1523
1525
1520
1520
1514
1514
1509
1504
1508
1514
1516
1520
1529
1541
1551
1558
1561
1565
1569
1570
1573
1568
1559
1552
1552
1550
1535
1535
1524
1524
1514
1517
1518
1515
1520
1520
1527
1533
1542
1547
1549
1552
1552
1551
1553
1554
1553
1552
1551
1547
1542
1535
1533
1531
1529
1531
1532
1531
1534
1549
1551
1559
1566
1570
1572
1575
1579
1575
1575
1570
1570
1568
1566
1567
1571
1577
1581
1586
1597
1602
1609
1615
1621
1627
1629
1631
1630
1629
1627
1621
1618
1617
1617
1617
1621
1630
1641
1648
1662
1677
1687
1699
1707
1712
1715
1714
1712
1707
1694
1680
1668
1654
1646
1629
1616
1613
1605
1600
1600
1600
1602
1604
1604
1609
1607
1609
1605
1603
1600
1598
1593
1586
1584
1579
1571
1563
1554
1546
1535
1520
1511
1501
1490
1488
1483
1481
1482
1487
1488
1498
1506
1517
1521
1527
1534
1541
1545
1542
1543
1535
1530
1523
1518
1514
1505
1500
1495
1493
1493
1495
1499
1504
1514
1520
1529
1535
1549
1554
1562
1567
1569
1567
1569
1564
1558
1552
1552
1542
1535
1531
1529
1527
1525
1524
1525
1529
1526
1527
1524
1522
1515
1504
1488
1471
1446
1424
1398
1375
1350
1330
1320
1314
1319
1333
1363
1408
1470
1552
1645
1751
1876
2015
2176
2348
2539
2746
2965
3202
3443
3691
3705
3707
3702
3706
3706
3707
3703
3706
3705
3705
3703
3705
3595
3377
3081
2705
2281
1813
1347
931
597
340
181
112
128
237
403
640
905
1185
1457
1707
1904
2027
2096
2096
2032
1929
1796
1652
1506
1379
1280
1209
1170
1169
1200
1258
1331
1424
1520
1616
1698
1764
1808
1837
1840
1827
1804
1766
1722
1680
1635
1600
1572
1552
1542
1535
1550
1560
1580
1600
1617
1636
1652
1664
1669
1671
1669
1666
1661
1653
1648
1638
1634
1630
1628
1628
1629
1637
1638
1647
1650
1660
1666
1671
1679
1681
1685
1693
1697
1698
1699
1701
1703
1706
1709
1710
1712
1711
1711
1710
1712
1712
1710
1710
1712
1713
1715
1718
1723
1728
1733
1739
1745
1754
1758
1767
1774
1778
1779
1787
1792
1792
1795
1799
1801
1805
1808
1809
1813
1814
1825
1829
1838
1840
1849
1856
1856
1858
1859
1856
1855
1854
1854
1847
1850
1847
1853
1856
1862
1872
1878
1894
1906
1917
1931
1940
1957
1967
1975
1984
1987
1994
1999
2000
2000
2000
2000
1998
1999
1997
1999
2000
2000
2003
2007
2011
2017
2021
2021
2023
2026
2030
2030
2032
2037
2043
2052
2063
2069
2075
2082
2091
2094
2094
2095
2086
2081
2075
2064
2053
2035
2026
2017
2006
1997
1986
1984
1974
1969
1966
1957
1952
1947
1939
1934
1925
1915
1904
1894
1878
1866
1851
1834
1815
1801
1782
1773
1758
1747
1741
1734
1729
1726
1723
1718
1713
1707
1697
1686
1674
1659
1645
1626
1606
1593
1575
1563
1552
1546
1542
1534
1534
1533
1535
1535
1534
1535
1530
1525
1520
1515
1504
1498
1488
1483
1474
1472
1467
1465
1463
1456
1462
1457
1456
1457
1458
1459
1459
1459
1461
1457
1456
1456
1454
1454
1447
1453
1449
1450
1447
1447
1455
1456
1454
1456
1455
1454
1454
1447
1449
1445
1442
1438
1437
1433
1429
1426
1426
1427
1427
1431
1434
1438
1439
1439
1440
1436
1436
1436
1437
1435
1435
1438
1441
1445
1453
1457
1466
1471
1478
1488
1491
1499
1503
1510
1511
1510
1507
1504
1499
1491
1488
1486
1481
1482
1477
1478
1475
1479
1481
1488
1489
1497
1505
1510
1518
1523
1531
1535
1546
1550
1552
1552
1553
1555
1553
1554
1557
1556
1556
1552
1552
1552
1552
1552
1553
1553
1554
1559
1561
1564
1565
1570
1570
1573
1578
1580
1584
1584
1587
1590
1594
1597
1600
1600
1600
1600
1600
1598
1595
1591
1587
1584
1584
1583
1584
1583
1583
1584
1584
1584
1584
1588
1589
1592
1590
1595
1594
1595
1595
1590
1587
1586
1585
1585
1584
1584
1584
1584
1584
1584
1582
1579
1578
1573
1573
1568
1566
1564
1559
1556
1552
1552
1553
1552
1551
1549
1547
1547
1548
1545
1542
1542
1534
1533
1532
1530
1530
1527
1530
1533
1535
1542
1549
1551
1552
1559
1562
1566
1569
1569
1568
1568
1566
1562
1556
1553
1552
1546
1542
1531
1526
1526
1522
1520
1521
1521
1522
1527
1527
1527
1528
1525
1527
1530
1529
1530
1526
1526
1531
1531
1535
1542
1546
1550
1552
1556
1562
1565
1571
1570
1573
1570
1568
1570
1565
1563
1557
1552
1552
1547
1543
1539
1535
1534
1533
1533
1534
1535
1541
1541
1535
1541
1541
1542
1542
1542
1535
1542
1541
1540
1535
1534
1535
1533
1531
1535
1543
1544
1550
1552
1552
1557
1557
1558
1558
1557
1554
1552
1548
1541
1535
1526
1520
1515
1509
1505
1504
1504
1506
1511
1519
1521
1530
1545
1552
1558
1567
1568
1570
1572
1568
1565
1559
1553
1552
1546
1543
1535
1535
1540
1541
1545
1545
1546
1547
1549
1550
1552
1550
1552
1550
1551
1551
1551
1552
1557
1562
1570
1579
1584
1590
1595
1600
1604
1606
1614
1616
1616
1618
1620
1621
1621
1621
1619
1616
1616
1615
1611
1609
1613
1614
1616
1618
1630
1643
1658
1674
1695
1712
1728
1744
1752
1756
1749
1744
1729
1714
1694
1673
1648
1630
1610
1599
1584
1578
1572
1570
1573
1578
1583
1590
1595
1601
1605
1608
1604
1605
1601
1599
1594
1589
1584
1580
1570
1566
1561
1553
1551
1541
1530
1522
1517
1505
1502
1499
1493
1491
1497
1495
1502
1506
1509
1515
1520
1522
1528
1531
1535
1543
1535
1535
1529
1526
1521
1520
1515
1510
1510
1511
1509
1515
1518
1520
1520
1526
1530
1532
1535
1543
1542
1545
1546
1545
1547
1547
1544
1546
1545
1542
1535
1535
1534
1532
1530
1529
1524
1520
1512
1497
1486
1466
1443
1419
1391
1360
1335
1314
1296
1286
1282
1293
1312
1349
1397
1463
1547
1641
1744
1860
1990
2128
2283
2445
2625
2819
3024
3247
3472
3701
3703
3702
3703
3706
3707
3705
3701
3706
3706
3705
3701
3702
3632
3435
3155
2798
2381
1934
1470
1040
678
400
210
112
94
167
309
519
766
1042
1321
1594
1821
1991
2106
2154
2128
2080
1972
1853
1715
1583
1463
1369
1310
1273
1274
1296
1344
1415
1493
1579
1654
1722
1776
1813
1837
1837
1819
1794
1763
1726
1677
1638
1605
1579
1557
1541
1532
1541
1553
1571
1589
1609
1634
1651
1670
1685
1696
1703
1705
1703
1699
1694
1686
1681
1674
1670
1666
1664
1665
1664
1667
1672
1675
1677
1678
1680
1681
1685
1687
1693
1699
1705
1710
1713
1722
1728
1732
1737
1741
1743
1744
1743
1744
1744
1743
1744
1743
1743
1744
1744
1746
1749
1754
1760
1763
1773
1778
1783
1792
1801
1803
1808
1813
1818
1822
1824
1831
1834
1838
1843
1846
1850
1856
1861
1863
1870
1872
1873
1875
1883
1885
1887
1895
1904
1904
1914
1921
1930
1936
1943
1951
1954
1965
1968
1968
1973
1978
1984
1984
1991
1997
2000
2004
2011
2018
2023
2032
2037
2045
2054
2064
2071
2077
2083
2091
2094
2097
2099
2103
2107
2108
2112
2110
2112
2112
2114
2114
2117
2121
2125
2128
2128
2128
2128
2130
2127
2118
2112
2103
2093
2080
2067
2055
2039
2032
2026
2017
2015
2014
2014
2016
2017
2018
2018
2016
2014
2009
2001
1994
1981
1965
1947
1923
1903
1877
1856
1834
1811
1792
1776
1759
1745
1733
1723
1712
1707
1699
1691
1681
1670
1661
1648
1634
1621
1609
1599
1587
1581
1571
1561
1557
1552
1551
1543
1532
1527
1522
1517
1510
1503
1494
1488
1486
1481
1476
1474
1472
1472
1472
1472
1473
1474
1477
1477
1478
1476
1478
1473
1472
1471
1466
1460
1457
1455
1451
1447
1443
1442
1438
1436
1435
1436
1434
1436
1436
1437
1436
1438
1435
1435
1436
1435
1437
1439
1441
1445
1449
1456
1456
1461
1462
1465
1466
1466
1466
1466
1463
1462
1463
1466
1462
1462
1458
1457
1456
1456
1456
1456
1454
1455
1455
1456
1457
1462
1467
1472
1481
1486
1490
1495
1503
1508
1518
1520
1520
1522
1525
1526
1522
1521
1520
1517
1515
1507
1509
1504
1501
1503
1499
1503
1503
1505
1509
1515
1520
1529
1541
1552
1558
1564
1574
1580
1581
1584
1584
1584
1584
1581
1581
1578
1571
1567
1563
1556
1552
1548
1544
1535
1534
1534
1534
1535
1546
1549
1552
1554
1562
1565
1571
1574
1578
1580
1581
1584
1581
1583
1583
1582
1583
1584
1584
1587
1588
1591
1588
1590
1590
1591
1590
1586
1585
1584
1583
1577
1571
1568
1564
1561
1555
1554
1554
1553
1553
1555
1555
1559
1558
1558
1561
1559
1558
1558
1557
1557
1555
1558
1562
1566
1568
1571
1574
1579
1581
1579
1575
1572
1565
1558
1552
1545
1529
1522
1520
1517
1517
1517
1520
1520
1527
1535
1549
1552
1556
1558
1563
1564
1566
1559
1557
1553
1552
1547
1542
1533
1526
1528
1526
1529
1532
1535
1545
1550
1552
1553
1552
1552
1552
1550
1543
1534
1525
1520
1515
1511
1509
1510
1511
1518
1520
1527
1535
1548
1552
1553
1555
1557
1556
1555
1553
1552
1550
1542
1533
1527
1527
1523
1523
1521
1521
1523
1524
1525
1529
1531
1531
1533
1533
1531
1531
1532
1534
1531
1531
1531
1531
1541
1542
1542
1550
1554
1552
1563
1562
1557
1563
1564
1555
1558
1557
1551
1552
1546
1549
1542
1543
1547
1549
1552
1552
1555
1561
1561
1562
1562
1558
1557
1553
1552
1549
1541
1534
1530
1525
1522
1523
1523
1525
1530
1535
1545
1552
1553
1558
1562
1565
1563
1562
1564
1561
1559
1559
1559
1557
1555
1556
1557
1558
1565
1566
1571
1582
1585
1595
1601
1613
1618
1629
1631
1637
1639
1640
1639
1639
1641
1645
1648
1654
1663
1671
1681
1698
1711
1718
1730
1731
1731
1728
1726
1713
1701
1685
1670
1654
1642
1632
1621
1616
1614
1610
1613
1611
1611
1613
1614
1613
1613
1610
1608
1601
1600
1597
1593
1586
1584
1584
1583
1583
1575
1573
1568
1559
1552
1541
1526
1520
1509
1501
1491
1488
1483
1478
1477
1478
1483
1488
1491
1501
1509
1517
1523
1530
1542
1546
1548
1551
1552
1549
1546
1542
1535
1523
1519
1513
1502
1498
1492
1491
1494
1499
1505
1515
1520
1531
1546
1552
1559
1568
1573
1574
1579
1579
1575
1572
1568
1563
1557
1551
1546
1533
1523
1509
1492
1475
1455
1429
1406
1380
1355
1331
1316
1299
1296
1298
1315
1343
1383
1440
1509
1599
1697
1808
1936
2082
2240
2411
2603
2801
3024
3261
3503
3701
3699
3701
3702
3699
3705
3702
3701
3705
3706
3705
3702
3702
3701
3567
3344
3047
2683
2260
1821
1366
962
640
390
233
155
166
256
411
625
880
1153
1429
1696
1913
2077
2174
2214
2199
2139
2033
1910
1772
1635
1510
1412
1345
1309
1299
1323
1361
1425
1500
1581
1649
1712
1763
1799
1819
1824
1810
1790
1759
1727
1688
1654
1621
1600
1585
1582
1579
1584
1591
1602
1619
1631
1647
1660
1669
1679
1681
1683
1685
1684
1682
1680
1680
1679
1677
1680
1680
1680
1680
1682
1687
1686
1690
1691
1691
1691
1689
1687
1683
1684
1686
1687
1694
1698
1706
1714
1721
1728
1733
1739
1744
1745
1747
1749
1750
1751
1753
1750
1754
1760
1762
1767
1775
1783
1792
1808
1815
1827
1835
1840
1842
1840
1840
1831
1825
1822
1810
1807
1802
1799
1803
1808
1814
1827
1840
1855
1865
1875
1888
1897
1906
1911
1916
1920
1922
1923
1923
1927
1933
1936
1942
1949
1962
1968
1982
1993
2002
2014
2023
2032
2039
2047
2055
2061
2064
2066
2067
2068
2071
2077
2080
2083
2091
2096
2103
2114
2116
2126
2128
2134
2137
2141
2144
2142
2142
2138
2135
2130
2128
2127
2122
2118
2114
2113
2115
2117
2115
2115
2114
2114
2112
2112
2107
2103
2097
2096
2085
2078
2066
2059
2046
2036
2030
2020
2011
2001
1991
1983
1970
1959
1945
1931
1917
1899
1879
1865
1844
1827
1808
1792
1775
1758
1744
1731
1722
1713
1708
1701
1692
1686
1680
1670
1664
1654
1646
1635
1622
1615
1602
1595
1584
1577
1564
1552
1542
1533
1524
1518
1510
1504
1498
1493
1489
1488
1486
1482
1475
1474
1486
1474
1475
1478
1481
1482
1483
1488
1482
1475
1475
1470
1461
1456
1447
1439
1435
1431
1425
1426
1430
1442
1454
1462
1471
1474
1478
1482
1481
1476
1472
1465
1457
1450
1443
1431
1425
1421
1418
1417
1420
1424
1429
1438
1447
1456
1465
1472
1482
1481
1488
1491
1491
1493
1490
1490
1489
1485
1487
1481
1483
1486
1479
1482
1482
1486
1486
1486
1487
1488
1486
1488
1488
1489
1489
1491
1494
1495
1501
1498
1502
1506
1507
1511
1515
1520
1520
1524
1525
1530
1531
1534
1545
1545
1549
1549
1552
1553
1552
1552
1555
1554
1553
1553
1553
1552
1552
1555
1555
1555
1559
1563
1562
1563
1565
1563
1562
1563
1557
1559
1559
1559
1563
1566
1572
1575
1581
1584
1585
1589
1593
1595
1599
1600
1597
1597
1598
1595
1593
1590
1586
1584
1581
1575
1572
1568
1563
1563
1561
1561
1560
1562
1562
1567
1567
1567
1567
1568
1566
1563
1561
1561
1562
1557
1559
1559
1558
1563
1563
1566
1567
1568
1571
1568
1570
1567
1565
1560
1555
1552
1547
1542
1535
1534
1532
1532
1533
1535
1535
1535
1541
1535
1541
1535
1534
1533
1529
1529
1524
1522
1524
1523
1523
1525
1526
1527
1534
1543
1548
1552
1554
1559
1563
1566
1569
1565
1565
1558
1555
1552
1549
1542
1532
1527
1521
1520
1518
1516
1517
1520
1523
1530
1542
1551
1553
1562
1566
1566
1571
1569
1565
1557
1552
1545
1542
1529
1523
1523
1523
1526
1531
1535
1549
1555
1562
1568
1572
1571
1570
1565
1559
1552
1546
1535
1524
1520
1518
1517
1519
1521
1526
1532
1545
1551
1555
1555
1555
1556
1553
1552
1549
1545
1545
1542
1534
1531
1531
1529
1527
1525
1526
1524
1522
1522
1520
1520
1520
1520
1520
1523
1526
1530
1535
1543
1547
1552
1552
1552
1552
1552
1550
1546
1543
1541
1534
1531
1530
1529
1529
1529
1530
1530
1533
1535
1543
1547
1550
1552
1557
1563
1567
1573
1582
1584
1587
1589
1595
1597
1600
1600
1601
1606
1611
1614
1616
1616
1618
1619
1621
1622
1619
1621
1623
1628
1632
1639
1648
1658
1670
1682
1697
1712
1723
1730
1738
1742
1744
1733
1727
1713
1699
1680
1663
1643
1622
1604
1593
1582
1578
1573
1574
1579
1583
1586
1591
1598
1602
1601
1604
1603
1600
1591
1587
1578
1571
1562
1552
1547
1531
1522
1518
1510
1506
1499
1495
1492
1493
1491
1494
1498
1501
1503
1509
1511
1515
1520
1520
1520
1520
1520
1520
1517
1517
1513
1511
1509
1512
1515
1518
1520
1526
1527
1532
1535
1543
1547
1549
1550
1547
1535
1543
1541
1535
1532
1530
1530
1531
1527
1529
1530
1533
1534
1535
1546
1546
1547
1549
1549
1534
1530
1515
1497
1475
1450
1419
1391
1357
1326
1296
1271
1256
1247
1254
1270
1302
1359
1425
1510
1616
1731
1862
2005
2171
2339
2523
2730
2946
3182
3416
3664
3703
3702
3702
3705
3701
3703
3701
3702
3702
3703
3701
3705
3703
3664
3494
3248
2918
2538
2114
1674
1246
878
596
394
275
241
288
404
586
803
1057
1307
1558
1771
1936
2053
2112
2112
2078
2000
1904
1796
1683
1583
1488
1422
1380
1367
1375
1398
1441
1488
1552
1612
1659
1703
1741
1758
1756
1755
1744
1723
1697
1670
1643
1617
1600
1589
1582
1577
1581
1587
1601
1615
1629
1647
1659
1671
1680
1687
1694
1692
1693
1682
1680
1669
1664
1657
1650
1648
1647
1646
1649
1649
1655
1664
1666
1677
1681
1685
1694
1699
1705
1703
1708
1706
1709
1706
1708
1705
1702
1703
1708
1710
1709
1715
1726
1728
1741
1744
1754
1761
1769
1772
1775
1776
1776
1776
1776
1776
1776
1776
1778
1782
1787
1794
1798
1805
1810
1822
1830
1838
1841
1851
1854
1856
1860
1863
1867
1870
1869
1872
1872
1872
1875
1882
1886
1891
1899
1905
1910
1920
1922
1934
1939
1947
1953
1958
1962
1968
1969
1977
1978
1985
1988
1995
2000
2005
2014
2023
2030
2034
2042
2054
2064
2064
2074
2075
2075
2077
2080
2080
2082
2081
2081
2083
2080
2080
2086
2090
2089
2091
2094
2094
2093
2091
2090
2089
2092
2088
2091
2089
2089
2085
2082
2080
2077
2070
2064
2059
2051
2038
2032
2019
2008
1999
1986
1977
1965
1951
1936
1925
1909
1897
1882
1870
1856
1843
1833
1817
1807
1792
1779
1767
1751
1737
1721
1707
1690
1670
1658
1647
1634
1619
1613
1606
1600
1600
1595
1593
1590
1587
1585
1582
1575
1571
1562
1553
1546
1531
1520
1506
1495
1487
1477
1467
1459
1456
1450
1443
1443
1441
1443
1442
1445
1449
1453
1456
1458
1461
1459
1461
1466
1459
1458
1457
1456
1450
1447
1441
1437
1437
1439
1434
1437
1435
1438
1439
1441
1443
1445
1445
1449
1449
1453
1453
1453
1454
1451
1446
1440
1438
1430
1425
1419
1414
1411
1409
1408
1408
1409
1415
1423
1427
1438
1449
1456
1462
1472
1477
1486
1488
1488
1488
1488
1488
1488
1486
1482
1480
1479
1482
1486
1485
1488
1489
1498
1505
1510
1518
1522
1524
1526
1527
1526
1525
1521
1522
1520
1520
1520
1520
1520
1521
1521
1531
1535
1544
1551
1554
1559
1562
1567
1564
1561
1561
1554
1552
1549
1547
1547
1547
1550
1550
1552
1557
1560
1565
1565
1563
1568
1566
1568
1563
1560
1559
1554
1554
1554
1557
1558
1562
1566
1569
1574
1577
1583
1584
1585
1585
1584
1581
1579
1569
1558
1552
1541
1528
1522
1519
1510
1510
1511
1517
1520
1524
1534
1546
1552
1559
1568
1571
1577
1575
1572
1571
1565
1562
1553
1549
1545
1533
1530
1525
1522
1520
1520
1520
1520
1520
1522
1529
1530
1534
1542
1547
1548
1547
1549
1548
1548
1547
1546
1543
1548
1543
1542
1541
1542
1543
1546
1547
1551
1552
1549
1550
1546
1543
1533
1525
1521
1515
1507
1505
1500
1497
1499
1499
1503
1507
1510
1517
1520
1526
1531
1542
1543
1547
1551
1552
1552
1552
1552
1552
1552
1552
1552
1552
1547
1546
1535
1535
1534
1531
1527
1521
1520
1515
1511
1505
1504
1503
1503
1503
1505
1509
1511
1517
1522
1524
1526
1532
1531
1535
1534
1535
1527
1525
1520
1518
1509
1505
1504
1487
1503
1505
1511
1520
1523
1531
1542
1549
1552
1559
1562
1564
1563
1563
1558
1552
1551
1546
1533
1530
1520
1520
1511
1518
1520
1514
1519
1520
1522
1526
1530
1531
1535
1535
1546
1551
1547
1546
1552
1554
1553
1549
1552
1549
1552
1552
1552
1552
1551
1545
1547
1543
1533
1531
1532
1534
1531
1533
1543
1546
1551
1556
1563
1573
1581
1585
1591
1595
1600
1600
1601
1600
1600
1601
1601
1600
1600
1599
1602
1610
1616
1625
1637
1649
1664
1680
1696
1711
1718
1726
1729
1728
1723
1714
1697
1681
1662
1645
1623
1607
1593
1584
1574
1570
1571
1572
1579
1585
1595
1604
1611
1616
1617
1617
1616
1616
1610
1602
1594
1587
1582
1569
1563
1553
1549
1541
1530
1520
1517
1509
1502
1499
1491
1488
1485
1479
1479
1481
1482
1485
1488
1491
1501
1506
1515
1518
1520
1522
1524
1521
1520
1519
1516
1511
1506
1505
1503
1502
1502
1504
1509
1514
1520
1526
1533
1546
1551
1555
1555
1554
1556
1552
1543
1534
1524
1520
1514
1509
1507
1509
1515
1519
1521
1523
1527
1522
1517
1499
1482
1458
1429
1401
1370
1344
1315
1294
1280
1273
1278
1296
1333
1381
1450
1532
1637
1751
1885
2032
2197
2374
2571
2779
3002
3239
3478
3703
3706
3703
3703
3700
3705
3703
3706
3705
3704
3702
3702
3702
3643
3453
3179
2831
2422
1977
1517
1090
736
461
278
182
175
247
393
596
843
1105
1370
1620
1828
1975
2064
2094
2064
1989
1885
1763
1633
1507
1406
1330
1282
1264
1271
1307
1363
1430
1513
1596
1666
1728
1777
1808
1819
1814
1795
1765
1725
1680
1637
1595
1563
1532
1518
1511
1517
1529
1552
1577
1600
1627
1651
1670
1686
1699
1706
1707
1703
1695
1687
1680
1672
1666
1664
1664
1663
1664
1665
1669
1674
1678
1680
1680
1681
1680
1681
1680
1681
1681
1680
1681
1685
1688
1692
1698
1702
1706
1712
1715
1721
1727
1728
1733
1738
1741
1739
1741
1744
1743
1744
1746
1745
1751
1750
1761
1763
1769
1776
1779
1786
1793
1801
1807
1810
1818
1822
1825
1827
1831
1833
1837
1840
1840
1845
1853
1856
1861
1870
1875
1882
1890
1899
1903
1906
1911
1914
1917
1919
1920
1920
1930
1933
1936
1941
1951
1957
1966
1970
1981
1984
1991
1999
2001
2005
2008
2006
2005
2003
2002
2000
2001
2002
2002
2007
2013
2021
2029
2034
2046
2053
2064
2067
2070
2073
2074
2067
2064
2057
2047
2035
2030
2022
2019
2014
2015
2012
2012
2013
2014
2013
2014
2014
2013
2010
2006
2000
1990
1983
1974
1958
1949
1936
1926
1915
1905
1897
1888
1877
1872
1865
1863
1856
1847
1840
1830
1815
1803
1791
1774
1757
1744
1728
1718
1705
1696
1682
1674
1664
1653
1645
1631
1619
1610
1599
1589
1578
1567
1559
1552
1547
1545
1535
1533
1531
1531
1530
1531
1530
1529
1527
1523
1520
1520
1509
1504
1495
1488
1484
1477
1472
1472
1471
1469
1470
1471
1470
1471
1472
1471
1470
1469
1463
1461
1459
1456
1455
1453
1452
1448
1447
1446
1443
1446
1443
1446
1449
1451
1455
1456
1458
1458
1458
1459
1460
1457
1456
1454
1451
1453
1452
1453
1444
1452
1453
1446
1456
1453
1457
1463
1446
1462
1469
1475
1473
1474
1479
1479
1481
1479
1479
1488
1488
1495
1504
1511
1520
1523
1533
1534
1550
1552
1554
1552
1554
1551
1546
1531
1524
1520
1510
1503
1499
1498
1503
1505
1513
1520
1530
1545
1556
1567
1579
1586
1591
1597
1599
1599
1597
1593
1587
1585
1581
1579
1576
1575
1573
1571
1569
1571
1575
1570
1573
1575
1578
1581
1584
1587
1595
1600
1605
1610
1614
1616
1616
1616
1616
1611
1603
1599
1593
1584
1581
1575
1568
1565
1562
1557
1555
1552
1552
1551
1552
1552
1552
1555
1554
1559
1558
1560
1562
1563
1562
1558
1559
1562
1561
1563
1563
1570
1572
1577
1581
1583
1584
1585
1584
1584
1584
1583
1582
1575
1569
1567
1559
1554
1552
1550
1549
1545
1535
1534
1531
1529
1525
1525
1526
1525
1527
1530
1535
1541
1548
1549
1554
1555
1556
1554
1552
1547
1535
1529
1521
1517
1510
1507
1507
1509
1514
1518
1525
1532
1543
1551
1557
1561
1565
1567
1568
1566
1565
1555
1553
1552
1551
1545
1545
1534
1534
1535
1535
1534
1535
1535
1535
1535
1535
1531
1526
1522
1520
1520
1517
1513
1511
1513
1515
1514
1518
1520
1522
1526
1532
1534
1543
1551
1552
1553
1554
1557
1557
1558
1553
1552
1547
1546
1534
1531
1527
1527
1525
1529
1532
1535
1542
1548
1552
1552
1555
1554
1553
1551
1546
1543
1533
1528
1522
1520
1515
1509
1506
1505
1503
1503
1502
1504
1507
1515
1520
1529
1541
1552
1562
1575
1584
1595
1600
1610
1616
1617
1618
1618
1619
1616
1614
1612
1607
1604
1605
1606
1613
1616
1627
1643
1651
1664
1678
1691
1699
1707
1713
1712
1709
1701
1689
1678
1659
1641
1619
1603
1590
1574
1565
1555
1552
1553
1554
1558
1566
1575
1584
1589
1597
1600
1600
1600
1597
1591
1584
1578
1568
1558
1551
1541
1530
1523
1520
1513
1509
1506
1501
1498
1494
1491
1489
1488
1485
1482
1481
1482
1479
1482
1483
1486
1488
1495
1504
1509
1514
1520
1522
1524
1527
1529
1530
1525
1523
1520
1516
1506
1499
1491
1488
1485
1483
1485
1488
1491
1498
1506
1515
1520
1530
1534
1543
1546
1547
1550
1543
1535
1542
1535
1531
1526
1526
1517
1507
1493
1475
1456
1434
1409
1389
1361
1338
1319
1298
1289
1282
1290
1312
1344
1392
1457
1548
1648
1770
1904
2063
2233
2425
2627
2843
3079
3324
3563
3702
3706
3705
3703
3705
3706
3706
3706
3706
3705
3706
3705
3622
3423
3151
2800
2395
1942
1481
1057
697
425
237
138
128
205
352
565
822
1093
1371
1637
1850
2004
2096
2118
2090
2000
1882
1744
1600
1465
1349
1270
1216
1198
1210
1251
1321
1399
1488
1586
1669
1741
1793
1825
1840
1830
1808
1776
1733
1687
1648
1606
1577
1552
1535
1530
1534
1552
1569
1589
1611
1634
1655
1673
1682
1697
1699
1701
1693
1685
1677
1663
1649
1639
1627
1622
1619
1621
1626
1638
1648
1661
1668
1691
1694
1710
1714
1714
1719
1717
1712
1710
1707
1700
1698
1689
1691
1692
1690
1690
1700
1708
1712
1721
1728
1728
1741
1745
1750
1754
1757
1755
1754
1753
1753
1753
1757
1760
1765
1776
1779
1790
1801
1811
1817
1826
1830
1839
1838
1840
1837
1837
1835
1826
1825
1825
1822
1831
1833
1840
1845
1856
1870
1879
1893
1904
1915
1925
1933
1936
1939
1943
1946
1946
1946
1943
1946
1949
1947
1952
1953
1958
1966
1968
1974
1981
1986
1998
2002
2012
2021
2032
2036
2047
2058
2058
2063
2063
2059
2054
2046
2039
2032
2028
2021
2017
2013
2011
2006
2005
2002
2003
2003
2001
2002
2002
2000
2000
1999
1993
1991
1987
1984
1981
1977
1970
1967
1962
1953
1947
1940
1936
1928
1917
1910
1903
1894
1881
1872
1858
1847
1835
1824
1808
1794
1785
1773
1760
1747
1737
1729
1724
1714
1710
1703
1697
1691
1683
1678
1669
1661
1649
1639
1623
1611
1598
1584
1573
1558
1552
1546
1535
1534
1530
1530
1532
1529
1530
1527
1524
1520
1516
1508
1499
1488
1482
1472
1459
1451
1441
1436
1434
1437
1440
1450
1459
1472
1485
1494
1505
1517
1520
1520
1518
1513
1504
1488
1479
1465
1454
1438
1429
1424
1423
1424
1425
1430
1440
1443
1453
1457
1459
1470
1471
1472
1473
1473
1474
1472
1472
1472
1472
1470
1468
1465
1460
1461
1461
1458
1459
1466
1472
1475
1482
1488
1493
1498
1503
1504
1507
1507
1505
1504
1504
1507
1504
1505
1511
1513
1519
1520
1525
1533
1534
1535
1535
1541
1534
1533
1527
1525
1525
1525
1523
1526
1531
1535
1545
1552
1558
1562
1569
1579
1579
1583
1583
1584
1583
1578
1574
1568
1569
1565
1565
1569
1571
1575
1582
1584
1584
1590
1591
1595
1594
1589
1594
1593
1596
1593
1595
1595
1597
1600
1600
1600
1601
1602
1602
1601
1602
1601
1607
1609
1607
1609
1613
1611
1611
1611
1607
1607
1605
1601
1598
1594
1586
1580
1574
1567
1557
1553
1555
1554
1558
1562
1568
1577
1584
1584
1585
1587
1590
1589
1586
1584
1584
1582
1579
1575
1572
1569
1566
1564
1564
1559
1557
1554
1558
1553
1552
1551
1547
1546
1543
1542
1535
1539
1543
1535
1543
1545
1550
1551
1553
1555
1560
1558
1564
1558
1561
1558
1558
1558
1555
1555
1554
1555
1555
1553
1553
1552
1552
1552
1552
1550
1547
1547
1546
1543
1542
1541
1545
1542
1542
1543
1546
1548
1547
1549
1551
1552
1552
1554
1552
1552
1552
1552
1552
1550
1550
1547
1546
1541
1534
1532
1530
1527
1525
1525
1527
1530
1535
1546
1547
1554
1558
1563
1568
1567
1569
1568
1566
1567
1563
1561
1561
1557
1561
1559
1566
1563
1566
1572
1578
1583
1586
1591
1597
1599
1600
1603
1605
1605
1606
1606
1605
1606
1612
1616
1622
1631
1641
1655
1664
1678
1695
1709
1719
1725
1728
1727
1721
1712
1697
1681
1669
1654
1642
1628
1616
1610
1603
1600
1595
1592
1588
1585
1584
1579
1578
1567
1565
1563
1558
1556
1559
1555
1557
1553
1555
1554
1554
1552
1549
1543
1528
1520
1510
1499
1486
1473
1465
1457
1455
1456
1455
1461
1469
1478
1489
1503
1515
1525
1535
1542
1549
1550
1552
1552
1545
1529
1523
1519
1511
1502
1501
1501
1491
1495
1492
1497
1502
1503
1517
1520
1520
1520
1522
1530
1525
1526
1528
1527
1526
1527
1526
1530
1534
1535
1541
1545
1547
1546
1535
1523
1511
1489
1470
1441
1411
1383
1350
1327
1301
1283
1275
1280
1294
1322
1362
1423
1491
1591
1693
1811
1949
2103
2266
2445
2640
2852
3082
3317
3552
3705
3705
3707
3707
3705
3703
3707
3707
3708
3706
3707
3707
3623
3429
3149
2794
2379
1921
1455
1019
663
387
195
97
85
159
308
518
771
1049
1328
1595
1823
1986
2089
2123
2101
2030
1920
1792
1655
1521
1412
1331
1279
1255
1264
1297
1358
1429
1515
1600
1680
1744
1792
1824
1838
1836
1824
1792
1759
1721
1680
1646
1615
1589
1573
1563
1561
1563
1574
1586
1601
1617
1633
1648
1661
1670
1680
1681
1682
1686
1685
1682
1680
1679
1674
1672
1669
1669
1667
1670
1675
1677
1680
1682
1683
1689
1695
1695
1698
1699
1701
1703
1710
1712
1713
1719
1727
1731
1739
1744
1749
1758
1757
1762
1759
1759
1761
1760
1760
1762
1763
1767
1774
1776
1781
1787
1794
1801
1802
1807
1808
1808
1808
1808
1808
1807
1809
1812
1815
1819
1827
1838
1841
1851
1857
1863
1872
1881
1888
1897
1903
1906
1909
1913
1913
1915
1919
1917
1917
1919
1919
1926
1927
1935
1938
1949
1957
1962
1967
1968
1969
1969
1968
1968
1968
1968
1971
1979
1986
2000
2013
2031
2046
2064
2079
2094
2105
2110
2112
2112
2112
2112
2104
2096
2085
2077
2067
2062
2047
2042
2035
2032
2030
2026
2026
2026
2025
2021
2019
2017
2013
2008
2000
1998
1990
1983
1977
1969
1967
1958
1952
1947
1942
1936
1933
1923
1919
1905
1897
1883
1870
1856
1841
1825
1808
1793
1777
1761
1744
1730
1721
1712
1703
1695
1686
1681
1680
1677
1670
1664
1657
1650
1642
1627
1618
1611
1601
1594
1586
1583
1578
1571
1567
1565
1562
1558
1553
1549
1543
1527
1520
1511
1501
1489
1485
1477
1475
1473
1474
1474
1479
1488
1489
1493
1497
1499
1501
1499
1494
1489
1485
1482
1471
1462
1456
1452
1446
1440
1437
1437
1437
1442
1449
1454
1459
1470
1473
1478
1479
1480
1474
1472
1462
1456
1452
1442
1436
1431
1430
1427
1430
1439
1443
1456
1462
1472
1484
1490
1499
1507
1513
1517
1517
1517
1517
1514
1510
1507
1505
1506
1507
1514
1516
1520
1523
1527
1534
1542
1549
1551
1551
1552
1552
1552
1552
1550
1551
1551
1550
1550
1552
1552
1552
1555
1559
1565
1567
1571
1574
1573
1575
1575
1573
1569
1570
1566
1565
1565
1562
1562
1565
1569
1573
1578
1581
1585
1594
1597
1601
1604
1607
1611
1613
1611
1611
1603
1600
1595
1589
1584
1579
1575
1571
1569
1567
1568
1572
1576
1583
1587
1593
1600
1602
1606
1607
1606
1603
1600
1598
1593
1585
1584
1581
1577
1574
1573
1575
1578
1582
1581
1584
1586
1585
1586
1589
1589
1590
1595
1589
1595
1597
1594
1591
1590
1584
1579
1575
1576
1563
1564
1555
1552
1552
1552
1543
1551
1551
1548
1549
1549
1552
1552
1553
1554
1556
1559
1562
1563
1564
1566
1563
1563
1558
1557
1553
1552
1552
1552
1552
1553
1554
1557
1559
1562
1562
1559
1561
1556
1552
1551
1546
1543
1535
1533
1530
1526
1527
1525
1527
1531
1530
1540
1545
1550
1551
1552
1555
1557
1555
1554
1555
1553
1552
1552
1550
1548
1549
1546
1542
1542
1542
1542
1534
1533
1530
1533
1535
1542
1547
1549
1552
1553
1556
1559
1563
1565
1567
1569
1571
1574
1581
1584
1588
1595
1600
1606
1614
1617
1622
1627
1634
1638
1638
1638
1639
1635
1634
1631
1630
1632
1635
1646
1657
1667
1682
1700
1717
1733
1745
1755
1759
1758
1747
1733
1714
1695
1669
1648
1626
1609
1593
1581
1572
1565
1562
1562
1567
1568
1571
1578
1581
1582
1584
1581
1583
1574
1571
1565
1562
1555
1552
1546
1535
1523
1521
1516
1509
1501
1491
1488
1483
1482
1482
1479
1479
1482
1486
1486
1488
1492
1495
1503
1506
1511
1517
1520
1523
1529
1535
1533
1534
1534
1533
1530
1526
1524
1523
1520
1519
1516
1513
1515
1514
1511
1512
1515
1517
1518
1520
1520
1520
1527
1530
1526
1535
1535
1543
1545
1544
1545
1545
1534
1531
1524
1513
1499
1481
1459
1431
1406
1374
1345
1318
1296
1276
1264
1265
1277
1302
1344
1402
1474
1569
1675
1793
1925
2075
2230
2395
2579
2774
2982
3203
3427
3654
3707
3710
3706
3707
3706
3705
3709
3709
3707
3703
3705
3705
3582
3376
3088
2730
2320
1873
1424
1007
661
401
225
134
128
208
354
562
807
1077
1353
1616
1839
2003
2112
2160
2155
2099
2003
1893
1768
1646
1527
1439
1378
1344
1341
1359
1402
1457
1526
1601
1669
1728
1776
1805
1823
1820
1806
1782
1745
1712
1668
1633
1601
1578
1558
1552
1553
1563
1579
1598
1616
1638
1657
1674
1687
1696
1702
1703
1703
1699
1692
1684
1680
1678
1677
1674
1673
1675
1679
1682
1687
1694
1697
1702
1707
1709
1709
1710
1710
1709
1705
1702
1701
1701
1698
1697
1696
1700
1698
1706
1712
1713
1722
1727
1737
1744
1751
1760
1770
1776
1779
1783
1788
1792
1796
1803
1806
1806
1808
1809
1810
1810
1808
1808
1808
1807
1804
1799
1799
1805
1804
1808
1813
1822
1834
1840
1851
1858
1872
1881
1889
1897
1904
1908
1915
1920
1920
1922
1927
1934
1936
1939
1942
1947
1955
1958
1966
1970
1975
1979
1984
1985
1986
1993
1995
1997
1998
2000
2002
2009
2015
2021
2032
2035
2046
2059
2064
2071
2075
2081
2086
2087
2087
2084
2082
2078
2070
2064
2062
2055
2043
2041
2037
2037
2035
2035
2034
2032
2030
2027
2019
2007
2002
1995
1984
1974
1966
1955
1950
1942
1936
1931
1933
1926
1925
1921
1918
1916
1904
1899
1888
1872
1861
1846
1830
1809
1796
1775
1753
1737
1719
1703
1685
1678
1667
1660
1652
1648
1643
1639
1637
1631
1626
1616
1613
1600
1593
1584
1570
1558
1549
1524
1517
1514
1503
1495
1495
1488
1493
1497
1497
1504
1505
1506
1510
1508
1504
1503
1489
1489
1486
1474
1471
1456
1461
1455
1453
1449
1446
1442
1440
1439
1443
1445
1450
1447
1452
1458
1457
1459
1467
1470
1472
1476
1473
1484
1483
1487
1488
1488
1488
1488
1485
1482
1479
1472
1467
1463
1456
1454
1450
1451
1449
1450
1455
1456
1461
1470
1473
1485
1489
1497
1504
1511
1514
1511
1514
1514
1510
1510
1507
1509
1510
1510
1514
1513
1517
1518
1521
1527
1530
1535
1546
1549
1552
1555
1556
1557
1561
1564
1564
1566
1567
1569
1569
1569
1571
1572
1573
1575
1575
1578
1579
1584
1584
1584
1584
1584
1584
1584
1584
1584
1584
1581
1583
1581
1584
1581
1584
1583
1584
1584
1584
1585
1584
1585
1586
1585
1586
1590
1593
1595
1599
1599
1601
1600
1598
1594
1584
1584
1574
1567
1559
1554
1552
1552
1552
1559
1567
1579
1584
1591
1605
1613
1618
1621
1627
1626
1623
1622
1616
1613
1603
1599
1594
1584
1580
1572
1568
1559
1555
1552
1551
1550
1552
1551
1552
1556
1561
1563
1566
1571
1571
1574
1576
1573
1573
1571
1571
1570
1567
1569
1572
1571
1575
1575
1578
1578
1577
1579
1577
1578
1577
1575
1575
1574
1567
1565
1561
1561
1555
1552
1545
1541
1534
1529
1521
1520
1519
1515
1515
1517
1519
1520
1525
1530
1533
1543
1551
1552
1557
1560
1565
1569
1571
1571
1572
1570
1569
1569
1566
1565
1561
1559
1555
1554
1555
1553
1554
1553
1555
1554
1557
1558
1559
1561
1559
1561
1561
1562
1559
1554
1553
1551
1548
1542
1535
1533
1534
1534
1543
1549
1553
1564
1574
1584
1589
1600
1607
1617
1623
1633
1638
1646
1648
1648
1647
1641
1635
1629
1619
1615
1613
1612
1616
1621
1634
1649
1667
1686
1709
1724
1737
1746
1749
1746
1739
1728
1712
1692
1667
1646
1623
1605
1592
1582
1573
1571
1568
1573
1577
1582
1585
1594
1600
1600
1600
1599
1593
1586
1579
1568
1558
1552
1546
1533
1526
1523
1519
1518
1513
1509
1506
1502
1501
1499
1497
1497
1498
1504
1506
1509
1511
1514
1518
1520
1522
1521
1523
1521
1519
1516
1509
1503
1499
1491
1488
1486
1485
1486
1488
1490
1495
1501
1507
1516
1520
1527
1531
1535
1535
1541
1541
1534
1534
1531
1524
1523
1520
1517
1513
1511
1509
1510
1514
1509
1510
1509
1506
1497
1485
1467
1443
1414
1391
1358
1328
1298
1278
1264
1261
1266
1290
1328
1387
1456
1552
1655
1778
1914
2063
2224
2393
2589
2789
3005
3237
3470
3703
3706
3707
3705
3706
3702
3706
3707
3709
3707
3705
3705
3702
3648
3472
3213
2883
2489
2061
1603
1160
791
499
298
177
144
199
327
526
761
1035
1306
1574
1803
1983
2102
2157
2154
2107
2012
1898
1775
1648
1532
1443
1382
1351
1347
1366
1408
1472
1543
1616
1681
1741
1786
1815
1829
1827
1813
1790
1759
1721
1684
1648
1616
1597
1579
1568
1568
1572
1584
1596
1611
1626
1643
1654
1664
1670
1674
1671
1672
1665
1664
1659
1657
1653
1651
1653
1659
1662
1663
1671
1680
1689
1699
1708
1707
1713
1713
1716
1712
1706
1707
1698
1695
1690
1690
1684
1691
1693
1693
1698
1712
1711
1721
1729
1737
1742
1744
1746
1761
1763
1770
1776
1779
1785
1792
1793
1799
1803
1808
1808
1812
1809
1810
1811
1808
1807
1808
1807
1808
1808
1811
1814
1825
1837
1841
1854
1863
1872
1886
1897
1904
1910
1918
1921
1923
1927
1926
1926
1926
1924
1924
1923
1927
1927
1930
1936
1939
1949
1961
1968
1975
1983
1991
2000
2002
2007
2010
2015
2020
2021
2027
2032
2032
2039
2045
2054
2062
2064
2070
2073
2074
2075
2073
2072
2067
2064
2058
2046
2037
2032
2023
2016
2014
2013
2011
2011
2016
2015
2019
2023
2023
2019
2017
2014
2002
1999
1986
1979
1966
1952
1942
1933
1921
1914
1904
1897
1888
1878
1875
1867
1858
1854
1846
1835
1823
1809
1796
1781
1765
1747
1733
1723
1707
1694
1684
1679
1671
1663
1658
1648
1639
1627
1616
1607
1594
1584
1574
1566
1557
1552
1549
1550
1547
1546
1545
1547
1547
1543
1535
1531
1528
1521
1516
1507
1503
1492
1488
1484
1483
1482
1481
1481
1482
1482
1483
1486
1487
1487
1488
1483
1477
1473
1467
1459
1454
1449
1443
1438
1438
1438
1439
1444
1447
1455
1459
1467
1472
1481
1485
1488
1489
1489
1489
1488
1484
1482
1478
1473
1472
1466
1461
1460
1458
1458
1457
1461
1463
1472
1475
1481
1488
1490
1498
1504
1510
1511
1513
1514
1515
1509
1509
1505
1504
1505
1504
1508
1515
1519
1526
1533
1545
1552
1553
1558
1562
1563
1561
1561
1559
1558
1555
1554
1554
1555
1555
1558
1559
1565
1564
1569
1571
1575
1579
1579
1580
1581
1582
1583
1584
1584
1584
1587
1587
1594
1595
1596
1600
1600
1600
1600
1600
1597
1594
1590
1586
1584
1584
1584
1584
1584
1584
1585
1585
1589
1591
1591
1594
1597
1599
1600
1600
1600
1600
1603
1600
1597
1598
1590
1585
1583
1579
1573
1567
1565
1559
1557
1555
1552
1554
1553
1553
1557
1558
1562
1565
1566
1568
1572
1577
1577
1579
1582
1582
1584
1584
1583
1584
1581
1579
1574
1568
1558
1552
1548
1534
1524
1520
1518
1520
1520
1520
1526
1534
1547
1552
1557
1565
1571
1574
1575
1577
1575
1572
1568
1561
1553
1549
1541
1529
1523
1520
1517
1517
1517
1518
1520
1522
1527
1532
1542
1550
1552
1554
1559
1559
1561
1563
1559
1557
1553
1552
1552
1549
1545
1543
1541
1543
1542
1540
1535
1535
1535
1535
1542
1541
1543
1543
1545
1543
1545
1541
1542
1543
1543
1541
1535
1535
1535
1535
1533
1531
1529
1525
1524
1520
1520
1519
1515
1515
1515
1517
1519
1522
1530
1535
1546
1550
1552
1554
1552
1551
1548
1541
1535
1525
1522
1520
1520
1520
1520
1524
1535
1551
1563
1575
1585
1600
1612
1619
1626
1633
1635
1635
1632
1625
1617
1614
1605
1601
1600
1600
1606
1616
1632
1648
1665
1685
1709
1727
1739
1744
1746
1749
1739
1725
1712
1685
1661
1638
1617
1600
1583
1569
1562
1558
1558
1564
1568
1580
1584
1589
1594
1594
1600
1591
1584
1581
1566
1558
1546
1532
1522
1517
1510
1502
1493
1489
1488
1479
1472
1469
1461
1455
1451
1444
1442
1442
1443
1448
1454
1459
1469
1478
1488
1496
1507
1517
1522
1527
1531
1530
1527
1526
1521
1516
1511
1506
1502
1501
1494
1493
1490
1493
1493
1494
1490
1491
1490
1492
1489
1491
1489
1490
1490
1490
1490
1493
1493
1499
1505
1509
1515
1515
1519
1515
1505
1489
1472
1451
1421
1392
1359
1326
1296
1270
1247
1235
1232
1248
1275
1316
1376
1454
1552
1662
1782
1920
2073
2238
2413
2606
2806
3030
3262
3499
3700
3702
3703
3707
3703
3707
3703
3705
3705
3702
3705
3703
3701
3602
3403
3124
2775
2368
1936
1488
1081
738
471
304
208
202
272
415
611
846
1102
1358
1607
1810
1965
2063
2099
2086
2031
1941
1838
1719
1604
1504
1425
1377
1349
1351
1373
1415
1467
1529
1600
1657
1709
1742
1762
1771
1763
1744
1713
1682
1648
1613
1583
1553
1533
1521
1520
1524
1535
1557
1583
1601
1621
1642
1661
1674
1680
1683
1684
1680
1668
1662
1648
1637
1621
1615
1605
1602
1601
1601
1612
1618
1630
1641
1653
1669
1681
1694
1701
1710
1712
1712
1711
1707
1699
1691
1685
1680
1670
1670
1665
1666
1667
1671
1679
1681
1693
1702
1710
1715
1724
1732
1739
1744
1747
1750
1756
1755
1758
1760
1762
1765
1765
1771
1771
1771
1776
1776
1776
1775
1775
1776
1775
1776
1778
1786
1792
1802
1808
1821
1838
1850
1863
1872
1881
1887
1897
1898
1895
1899
1896
1895
1891
1891
1897
1902
1906
1914
1925
1935
1944
1959
1968
1979
1984
1993
2000
2002
2005
2005
2005
2004
2000
1997
1995
1990
1989
1986
1985
1984
1984
1984
1983
1983
1982
1981
1983
1979
1979
1979
1978
1979
1975
1975
1975
1978
1982
1983
1985
1986
1985
1985
1979
1970
1959
1943
1927
1906
1888
1868
1853
1838
1824
1815
1809
1808
1808
1811
1811
1818
1815
1817
1811
1806
1794
1783
1770
1750
1733
1717
1696
1680
1661
1647
1630
1617
1606
1596
1587
1584
1579
1575
1569
1567
1563
1557
1554
1552
1545
1535
1529
1520
1512
1507
1501
1495
1494
1490
1491
1491
1492
1498
1498
1498
1491
1488
1486
1474
1468
1456
1446
1431
1424
1413
1408
1403
1403
1402
1403
1409
1414
1422
1426
1435
1437
1444
1446
1450
1452
1449
1445
1441
1437
1436
1429
1425
1425
1424
1424
1424
1424
1426
1424
1424
1428
1430
1435
1439
1442
1446
1453
1456
1456
1463
1467
1472
1472
1474
1475
1476
1478
1479
1479
1477
1481
1475
1479
1474
1479
1474
1473
1475
1473
1475
1478
1478
1485
1488
1493
1501
1511
1520
1524
1535
1549
1554
1561
1564
1569
1575
1570
1569
1567
1562
1562
1554
1555
1551
1548
1545
1541
1542
1534
1533
1531
1530
1528
1523
1523
1522
1523
1525
1525
1531
1533
1542
1549
1553
1560
1565
1569
1575
1579
1583
1584
1584
1587
1587
1584
1584
1579
1574
1573
1571
1568
1566
1564
1561
1555
1555
1557
1556
1561
1565
1563
1571
1575
1575
1579
1582
1582
1580
1579
1575
1575
1571
1571
1566
1557
1552
1552
1549
1540
1530
1531
1532
1527
1527
1526
1534
1541
1542
1545
1534
1549
1541
1550
1551
1549
1545
1545
1544
1543
1533
1526
1520
1519
1510
1508
1504
1501
1497
1494
1494
1498
1501
1503
1507
1511
1517
1520
1522
1526
1526
1525
1524
1524
1520
1518
1513
1506
1504
1497
1493
1489
1488
1488
1488
1488
1489
1488
1492
1493
1495
1502
1503
1509
1507
1510
1515
1511
1510
1506
1503
1505
1502
1502
1500
1499
1498
1498
1502
1502
1505
1506
1510
1514
1515
1516
1515
1518
1518
1514
1513
1514
1515
1515
1515
1505
1513
1510
1510
1505
1502
1499
1497
1491
1488
1486
1485
1482
1482
1482
1485
1486
1488
1491
1495
1499
1504
1509
1510
1514
1511
1511
1509
1509
1508
1507
1508
1509
1514
1518
1520
1530
1542
1551
1554
1564
1570
1574
1581
1583
1583
1583
1581
1581
1578
1571
1571
1575
1581
1584
1595
1606
1623
1642
1660
1678
1691
1702
1712
1712
1707
1697
1680
1664
1639
1616
1591
1571
1552
1529
1520
1511
1507
1510
1517
1522
1530
1547
1554
1563
1572
1574
1574
1578
1568
1563
1553
1547
1532
1521
1513
1498
1488
1476
1465
1450
1440
1430
1424
1421
1415
1415
1418
1424
1426
1433
1441
1451
1456
1462
1470
1472
1475
1475
1473
1472
1470
1463
1461
1457
1457
1453
1456
1456
1458
1463
1469
1472
1478
1485
1487
1488
1488
1489
1488
1488
1487
1484
1485
1478
1477
1477
1477
1479
1479
1478
1485
1486
1487
1487
1484
1475
1472
1462
1446
1430
1409
1386
1361
1335
1310
1286
1266
1250
1239
1241
1251
1276
1317
1371
1447
1532
1647
1771
1911
2073
2245
2438
2641
2861
3093
3335
3581
3709
3707
3705
3703
3706
3709
3707
3703
3707
3706
3707
3693
3542
3316
3002
2627
2194
1735
1275
867
545
300
143
80
98
204
373
599
859
1139
1408
1662
1856
1990
2064
2069
2012
1915
1798
1657
1515
1389
1286
1209
1163
1147
1165
1208
1274
1359
1449
1546
1632
1706
1760
1799
1811
1810
1792
1760
1723
1675
1635
1593
1554
1521
1505
1493
1491
1499
1514
1527
1552
1570
1585
1601
1616
1624
1631
1633
1633
1629
1622
1617
1614
1611
1607
1609
1608
1610
1615
1617
1626
1634
1643
1652
1658
1664
1668
1671
1675
1674
1667
1666
1659
1650
1648
1645
1642
1646
1647
1653
1662
1670
1680
1691
1703
1712
1715
1719
1721
1718
1715
1713
1712
1711
1711
1711
1712
1712
1715
1718
1724
1726
1728
1737
1742
1747
1758
1762
1773
1776
1782
1787
1791
1795
1797
1802
1807
1808
1813
1817
1824
1825
1829
1834
1834
1836
1838
1837
1840
1842
1846
1849
1855
1862
1868
1876
1883
1895
1904
1914
1923
1935
1936
1946
1951
1954
1957
1953
1954
1950
1944
1941
1938
1940
1939
1945
1950
1955
1966
1970
1977
1987
1994
1996
1995
1991
1984
1982
1968
1962
1946
1939
1923
1920
1910
1905
1904
1904
1904
1905
1905
1909
1910
1911
1909
1910
1901
1894
1888
1874
1861
1846
1826
1801
1790
1773
1750
1730
1712
1707
1697
1682
1678
1690
1675
1674
1671
1674
1674
1669
1666
1659
1651
1648
1634
1624
1613
1601
1596
1583
1575
1566
1555
1552
1547
1535
1531
1520
1521
1518
1508
1502
1491
1488
1477
1472
1466
1459
1456
1454
1450
1449
1447
1450
1445
1446
1446
1443
1443
1442
1445
1438
1437
1433
1431
1430
1429
1428
1429
1425
1425
1424
1424
1423
1419
1418
1414
1413
1414
1412
1409
1408
1406
1405
1403
1401
1401
1396
1401
1405
1405
1406
1408
1409
1409
1412
1417
1414
1415
1411
1409
1408
1408
1408
1409
1411
1415
1422
1426
1434
1443
1451
1455
1462
1468
1469
1475
1479
1483
1485
1488
1488
1490
1492
1493
1495
1498
1498
1498
1498
1495
1494
1488
1488
1484
1481
1479
1477
1475
1477
1482
1478
1484
1488
1490
1497
1503
1506
1513
1517
1521
1527
1531
1543
1545
1547
1551
1552
1549
1549
1551
1546
1546
1547
1549
1552
1552
1555
1563
1567
1576
1578
1584
1586
1589
1587
1591
1587
1584
1581
1573
1568
1559
1555
1552
1550
1552
1549
1552
1554
1556
1562
1563
1566
1568
1568
1567
1563
1566
1562
1555
1554
1552
1552
1547
1542
1543
1535
1535
1534
1531
1534
1533
1541
1543
1546
1546
1546
1549
1546
1541
1535
1531
1528
1523
1521
1520
1520
1521
1520
1525
1526
1525
1528
1526
1524
1520
1518
1513
1505
1493
1494
1489
1489
1488
1488
1489
1491
1494
1494
1496
1495
1494
1494
1493
1494
1493
1493
1494
1495
1498
1500
1502
1510
1514
1520
1525
1529
1533
1535
1533
1528
1522
1517
1509
1496
1488
1479
1472
1467
1462
1462
1461
1471
1474
1476
1488
1495
1507
1513
1517
1521
1523
1527
1526
1523
1520
1519
1514
1506
1501
1494
1488
1488
1482
1479
1478
1480
1485
1486
1491
1498
1503
1507
1510
1515
1517
1515
1514
1506
1505
1494
1488
1486
1478
1476
1475
1473
1474
1476
1481
1482
1487
1490
1492
1497
1499
1502
1504
1502
1506
1503
1502
1503
1505
1508
1513
1515
1521
1529
1534
1543
1552
1554
1557
1565
1568
1569
1571
1571
1572
1579
1581
1584
1591
1600
1610
1621
1634
1646
1655
1664
1666
1669
1667
1664
1654
1641
1631
1614
1599
1583
1567
1555
1545
1534
1529
1526
1530
1532
1541
1541
1546
1549
1546
1542
1535
1529
1524
1518
1510
1505
1498
1491
1488
1482
1482
1475
1472
1469
1462
1460
1456
1456
1454
1456
1447
1450
1447
1443
1442
1438
1438
1437
1437
1438
1441
1445
1454
1456
1465
1471
1477
1485
1486
1488
1490
1491
1490
1488
1488
1482
1477
1472
1472
1469
1465
1463
1461
1461
1459
1462
1459
1465
1466
1468
1471
1472
1477
1479
1488
1489
1494
1503
1503
1505
1503
1491
1479
1461
1436
1408
1376
1345
1313
1283
1261
1239
1232
1229
1241
1267
1308
1363
1435
1524
1635
1756
1891
2039
2207
2384
2583
2797
3015
3249
3488
3707
3709
3706
3709
3708
3706
3704
3708
3709
3709
3707
3687
3536
3313
3004
2631
2199
1738
1270
861
528
276
117
34
49
149
320
552
811
1093
1376
1632
1849
1987
2064
2085
2032
1934
1814
1674
1520
1396
1292
1216
1169
1156
1171
1218
1283
1366
1459
1553
1634
1706
1755
1789
1802
1795
1777
1746
1712
1666
1623
1584
1548
1513
1492
1482
1476
1488
1503
1521
1551
1574
1597
1616
1637
1649
1659
1661
1661
1657
1647
1634
1622
1611
1600
1591
1586
1585
1585
1591
1599
1603
1614
1622
1632
1639
1648
1649
1655
1660
1659
1662
1658
1655
1658
1654
1653
1653
1654
1661
1664
1670
1679
1686
1697
1709
1713
1724
1729
1742
1744
1748
1752
1757
1760
1760
1760
1758
1757
1753
1751
1748
1744
1744
1744
1744
1744
1745
1750
1757
1760
1763
1772
1777
1783
1787
1792
1802
1808
1813
1822
1835
1840
1847
1856
1863
1872
1877
1883
1889
1891
1893
1894
1899
1900
1899
1901
1903
1904
1911
1915
1920
1925
1932
1937
1941
1947
1950
1956
1959
1959
1964
1963
1957
1955
1951
1948
1949
1948
1950
1952
1958
1963
1968
1974
1979
1982
1982
1979
1975
1968
1964
1951
1943
1936
1922
1917
1909
1904
1901
1898
1894
1890
1887
1883
1877
1872
1871
1862
1856
1852
1844
1839
1836
1833
1826
1821
1813
1808
1799
1788
1776
1761
1745
1733
1717
1701
1686
1671
1654
1642
1629
1616
1605
1600
1587
1584
1577
1572
1568
1563
1555
1554
1552
1552
1547
1541
1530
1523
1520
1511
1498
1490
1482
1473
1469
1458
1456
1455
1454
1454
1456
1458
1460
1463
1466
1465
1459
1456
1456
1446
1441
1433
1425
1424
1421
1418
1416
1417
1415
1416
1419
1421
1424
1425
1426
1428
1430
1432
1433
1430
1427
1424
1424
1424
1422
1422
1423
1423
1423
1424
1424
1425
1426
1426
1427
1424
1424
1419
1418
1410
1408
1406
1403
1405
1403
1407
1408
1417
1424
1431
1440
1451
1460
1471
1477
1482
1487
1488
1492
1489
1488
1487
1483
1483
1479
1475
1474
1478
1478
1479
1488
1489
1495
1505
1513
1520
1523
1533
1534
1535
1542
1542
1542
1542
1535
1535
1535
1534
1535
1541
1545
1548
1551
1552
1554
1556
1561
1563
1565
1566
1566
1568
1566
1559
1558
1553
1551
1550
1547
1542
1541
1546
1552
1555
1567
1575
1584
1594
1599
1600
1602
1601
1598
1593
1584
1574
1565
1554
1546
1535
1533
1527
1531
1535
1542
1549
1557
1567
1574
1584
1589
1598
1601
1605
1606
1603
1601
1600
1597
1589
1584
1581
1573
1570
1567
1562
1557
1554
1553
1552
1551
1552
1549
1552
1550
1551
1552
1551
1552
1552
1552
1550
1550
1549
1545
1545
1543
1543
1543
1542
1543
1546
1546
1547
1547
1546
1546
1542
1543
1535
1533
1530
1525
1523
1520
1520
1520
1520
1518
1517
1512
1510
1504
1502
1499
1497
1495
1498
1501
1503
1506
1511
1515
1520
1519
1519
1518
1517
1515
1510
1510
1505
1503
1503
1505
1505
1509
1515
1520
1523
1529
1531
1542
1544
1541
1535
1529
1525
1520
1519
1509
1505
1504
1504
1502
1504
1507
1512
1520
1525
1535
1547
1556
1563
1568
1573
1578
1582
1585
1584
1586
1590
1595
1598
1594
1591
1593
1590
1593
1589
1595
1600
1601
1610
1616
1626
1633
1653
1665
1669
1680
1687
1693
1696
1702
1685
1676
1664
1651
1633
1616
1600
1584
1569
1554
1546
1529
1521
1520
1520
1520
1521
1524
1532
1535
1543
1549
1552
1552
1551
1551
1552
1546
1547
1535
1524
1513
1498
1487
1469
1455
1440
1426
1423
1414
1412
1421
1424
1433
1446
1454
1467
1477
1488
1491
1495
1501
1503
1503
1498
1492
1488
1482
1478
1474
1471
1469
1467
1470
1471
1471
1474
1479
1486
1487
1488
1490
1493
1495
1494
1493
1492
1493
1493
1492
1492
1493
1494
1495
1501
1499
1507
1506
1510
1508
1507
1503
1492
1482
1463
1445
1413
1388
1358
1327
1297
1272
1254
1244
1244
1257
1282
1328
1392
1465
1559
1667
1787
1919
2067
2223
2389
2576
2771
2982
3206
3437
3667
3705
3702
3703
3705
3702
3706
3707
3705
3707
3701
3709
3639
3456
3190
2846
2434
1986
1519
1073
693
400
192
71
45
97
236
432
682
955
1237
1511
1754
1936
2061
2112
2109
2045
1947
1823
1690
1560
1439
1344
1283
1249
1245
1270
1318
1383
1456
1533
1612
1674
1727
1757
1778
1778
1767
1744
1715
1683
1651
1622
1599
1580
1571
1565
1567
1573
1584
1600
1611
1622
1633
1643
1649
1651
1654
1654
1651
1651
1648
1648
1646
1645
1645
1643
1647
1646
1648
1650
1653
1659
1658
1657
1661
1661
1661
1663
1662
1666
1666
1674
1679
1680
1687
1689
1697
1696
1699
1702
1702
1701
1702
1703
1705
1706
1703
1709
1711
1714
1717
1721
1728
1737
1738
1744
1748
1758
1761
1767
1771
1776
1779
1785
1792
1795
1801
1808
1809
1820
1825
1830
1837
1842
1845
1846
1850
1853
1853
1856
1856
1856
1859
1865
1872
1874
1884
1893
1902
1913
1921
1934
1940
1951
1963
1968
1973
1979
1983
1984
1985
1985
1989
1985
1987
1989
1989
1993
1996
2003
2006
2012
2019
2026
2032
2033
2038
2042
2046
2051
2050
2051
2050
2046
2046
2044
2047
2041
2042
2041
2035
2036
2033
2032
2029
2023
2017
2009
2003
2000
1989
1983
1968
1960
1949
1936
1927
1920
1916
1907
1904
1904
1901
1894
1895
1888
1880
1872
1861
1851
1835
1817
1797
1776
1754
1735
1715
1702
1685
1677
1664
1659
1655
1650
1648
1647
1642
1639
1634
1626
1616
1609
1599
1589
1579
1567
1554
1547
1529
1520
1509
1496
1489
1483
1478
1472
1472
1472
1472
1473
1474
1475
1479
1477
1475
1473
1472
1469
1463
1461
1456
1455
1454
1453
1452
1450
1451
1450
1452
1454
1452
1450
1447
1446
1442
1438
1434
1427
1424
1424
1421
1423
1422
1424
1427
1429
1436
1441
1443
1452
1454
1453
1453
1452
1453
1447
1443
1441
1441
1441
1437
1438
1439
1438
1442
1442
1443
1446
1447
1453
1454
1456
1456
1459
1466
1465
1471
1472
1470
1471
1471
1466
1466
1467
1466
1463
1465
1467
1465
1471
1472
1476
1479
1482
1488
1488
1493
1499
1506
1510
1515
1519
1522
1527
1535
1544
1551
1555
1558
1563
1562
1565
1564
1565
1565
1561
1566
1557
1561
1564
1562
1569
1574
1577
1575
1584
1586
1590
1594
1591
1597
1587
1595
1586
1588
1587
1586
1585
1586
1584
1584
1585
1584
1583
1584
1583
1584
1584
1582
1584
1583
1583
1581
1578
1579
1578
1575
1572
1566
1567
1562
1561
1557
1555
1558
1557
1556
1557
1561
1564
1563
1565
1567
1569
1571
1573
1575
1579
1582
1583
1584
1583
1581
1581
1575
1569
1565
1559
1552
1550
1549
1544
1535
1535
1541
1542
1543
1546
1551
1552
1553
1553
1554
1557
1559
1558
1558
1560
1558
1555
1553
1550
1549
1541
1535
1530
1526
1524
1523
1523
1525
1522
1523
1526
1529
1530
1533
1534
1541
1546
1543
1542
1546
1546
1543
1535
1533
1529
1529
1524
1521
1518
1513
1508
1500
1493
1487
1483
1475
1474
1472
1472
1475
1482
1487
1495
1504
1515
1523
1534
1547
1552
1557
1566
1569
1569
1570
1567
1562
1559
1551
1541
1524
1519
1511
1502
1498
1498
1499
1503
1512
1524
1535
1551
1564
1577
1584
1590
1594
1600
1600
1600
1600
1600
1600
1599
1598
1598
1594
1595
1595
1591
1595
1593
1599
1601
1609
1617
1631
1645
1659
1676
1685
1699
1713
1720
1718
1717
1711
1702
1686
1674
1651
1635
1619
1605
1590
1580
1570
1563
1557
1553
1554
1555
1559
1563
1567
1569
1571
1572
1568
1568
1563
1557
1552
1549
1535
1526
1520
1513
1501
1490
1485
1473
1465
1456
1452
1450
1440
1441
1440
1441
1444
1453
1456
1460
1465
1472
1475
1486
1488
1491
1494
1494
1495
1498
1495
1494
1497
1495
1495
1497
1500
1502
1504
1502
1505
1503
1501
1503
1502
1500
1498
1491
1493
1493
1491
1494
1498
1504
1509
1517
1521
1527
1535
1543
1547
1550
1548
1542
1525
1509
1488
1467
1435
1405
1374
1342
1311
1290
1266
1255
1254
1262
1280
1315
1365
1430
1511
1615
1719
1841
1979
2128
2288
2461
2655
2864
3088
3323
3565
3705
3705
3707
3709
3702
3705
3704
3705
3710
3702
3703
3706
3705
3583
3369
3077
2705
2289
1840
1375
960
624
359
190
99
100
183
337
558
813
1088
1372
1645
1872
2043
2154
2202
2192
2139
2037
1918
1782
1652
1533
1437
1371
1333
1324
1341
1376
1426
1490
1558
1623
1679
1719
1745
1765
1772
1761
1741
1715
1684
1661
1631
1607
1587
1580
1573
1575
1580
1587
1600
1615
1625
1639
1648
1659
1665
1669
1670
1673
1671
1671
1667
1664
1663
1658
1656
1649
1648
1647
1643
1645
1644
1646
1650
1658
1665
1674
1682
1692
1701
1710
1712
1714
1716
1721
1718
1717
1714
1714
1712
1712
1712
1712
1712
1715
1722
1728
1733
1742
1751
1766
1773
1776
1782
1787
1787
1786
1781
1778
1773
1771
1770
1769
1769
1772
1777
1781
1788
1797
1805
1811
1821
1827
1835
1841
1850
1855
1856
1867
1872
1882
1888
1899
1904
1910
1920
1923
1931
1936
1936
1939
1943
1947
1947
1951
1957
1965
1965
1969
1978
1985
1995
2000
2011
2022
2032
2042
2054
2064
2071
2076
2081
2083
2084
2081
2080
2077
2071
2066
2064
2058
2054
2051
2047
2054
2055
2055
2064
2070
2076
2083
2091
2093
2093
2090
2090
2079
2073
2057
2045
2032
2015
2003
1998
1985
1972
1968
1965
1953
1950
1943
1935
1927
1920
1910
1903
1890
1875
1866
1856
1843
1831
1815
1804
1792
1778
1765
1750
1743
1728
1715
1703
1686
1677
1664
1651
1639
1632
1617
1614
1602
1598
1590
1584
1580
1573
1565
1552
1535
1531
1521
1513
1503
1493
1471
1482
1478
1474
1472
1470
1465
1459
1459
1458
1458
1457
1456
1456
1454
1454
1454
1454
1451
1449
1450
1451
1448
1447
1450
1445
1445
1447
1446
1447
1446
1450
1450
1451
1453
1451
1453
1454
1453
1451
1450
1447
1443
1440
1433
1427
1426
1422
1417
1419
1418
1418
1418
1420
1419
1424
1433
1438
1451
1456
1466
1472
1477
1482
1483
1482
1483
1476
1475
1472
1471
1472
1471
1472
1472
1474
1474
1478
1482
1487
1488
1489
1491
1493
1495
1498
1500
1501
1503
1505
1510
1514
1514
1518
1520
1522
1527
1531
1535
1543
1547
1552
1553
1553
1554
1555
1561
1561
1563
1565
1563
1567
1568
1568
1571
1571
1571
1570
1569
1568
1567
1565
1567
1562
1566
1569
1571
1573
1580
1584
1589
1595
1598
1600
1601
1603
1606
1606
1603
1600
1600
1600
1597
1590
1590
1587
1587
1586
1587
1587
1590
1593
1594
1597
1598
1600
1602
1602
1602
1604
1602
1606
1600
1600
1595
1588
1585
1578
1569
1555
1552
1547
1535
1532
1534
1534
1547
1550
1554
1562
1567
1572
1577
1582
1583
1584
1584
1582
1581
1579
1577
1577
1571
1570
1569
1567
1566
1565
1562
1555
1554
1552
1547
1535
1529
1520
1519
1514
1506
1506
1507
1515
1519
1525
1531
1543
1551
1553
1559
1563
1562
1565
1561
1562
1558
1554
1553
1549
1549
1548
1544
1545
1543
1542
1535
1535
1534
1531
1531
1530
1525
1526
1525
1526
1523
1522
1523
1523
1521
1520
1521
1522
1523
1527
1530
1534
1541
1543
1547
1549
1552
1552
1551
1547
1540
1532
1524
1520
1515
1511
1507
1507
1504
1507
1511
1517
1521
1527
1534
1545
1550
1553
1555
1552
1552
1549
1545
1533
1526
1520
1517
1513
1507
1507
1506
1509
1511
1517
1520
1523
1531
1541
1547
1550
1552
1554
1555
1555
1554
1554
1552
1548
1543
1535
1535
1535
1535
1542
1548
1551
1554
1561
1569
1578
1582
1591
1598
1602
1611
1616
1621
1629
1629
1631
1631
1632
1629
1627
1626
1627
1629
1632
1635
1648
1655
1669
1682
1691
1701
1708
1712
1711
1701
1693
1680
1664
1651
1634
1621
1614
1601
1597
1587
1584
1584
1583
1584
1584
1586
1585
1585
1585
1581
1572
1566
1557
1551
1541
1530
1523
1520
1520
1515
1513
1507
1507
1504
1502
1499
1494
1491
1488
1488
1488
1490
1497
1501
1502
1507
1509
1511
1520
1520
1520
1520
1520
1520
1518
1515
1510
1507
1506
1498
1494
1493
1492
1494
1493
1495
1499
1504
1507
1510
1513
1515
1517
1520
1520
1522
1523
1525
1527
1527
1530
1527
1529
1533
1530
1533
1541
1535
1541
1535
1530
1520
1511
1494
1477
1455
1424
1399
1367
1341
1312
1293
1271
1264
1266
1279
1307
1347
1408
1478
1575
1675
1795
1920
2076
2229
2403
2595
2800
3023
3254
3502
3706
3710
3709
3708
3707
3708
3711
3711
3707
3707
3707
3710
3707
3709
3601
3383
3104
2742
2337
1881
1450
1044
710
461
295
210
211
291
445
650
887
1163
1424
1680
1893
2054
2155
2198
2190
2130
2039
1930
1805
1678
1563
1463
1395
1355
1342
1351
1380
1429
1486
1552
1614
1668
1715
1748
1771
1782
1777
1765
1743
1716
1683
1658
1632
1606
1587
1577
1570
1570
1571
1582
1593
1605
1616
1632
1645
1650
1659
1664
1664
1665
1666
1666
1664
1660
1662
1660
1659
1659
1661
1664
1665
1674
1680
1689
1699
1711
1715
1724
1728
1731
1734
1733
1730
1727
1723
1713
1707
1699
1695
1682
1686
1689
1691
1697
1708
1715
1728
1739
1750
1761
1773
1781
1790
1793
1798
1803
1805
1805
1802
1803
1797
1797
1797
1795
1798
1795
1799
1807
1808
1814
1823
1835
1841
1850
1857
1863
1872
1884
1888
1893
1901
1904
1906
1904
1906
1904
1902
1899
1895
1888
1895
1902
1904
1914
1923
1936
1947
1965
1975
1991
2006
2022
2036
2047
2063
2069
2070
2077
2075
2075
2077
2071
2071
2071
2069
2075
2078
2083
2089
2092
2097
2105
2112
2112
2117
2119
2119
2123
2115
2112
2106
2096
2091
2081
2073
2064
2058
2051
2045
2032
2032
2027
2027
2022
2015
2010
2005
2000
1995
1989
1982
1974
1969
1963
1951
1939
1927
1915
1902
1884
1866
1847
1833
1813
1801
1789
1776
1764
1747
1742
1728
1716
1703
1685
1673
1659
1648
1636
1621
1614
1605
1600
1595
1587
1584
1581
1576
1568
1558
1549
1543
1533
1523
1517
1509
1503
1495
1495
1490
1488
1488
1488
1488
1488
1488
1489
1489
1491
1489
1489
1488
1488
1484
1481
1477
1471
1467
1462
1456
1451
1445
1439
1437
1431
1430
1427
1429
1433
1433
1438
1441
1445
1451
1453
1456
1458
1458
1462
1461
1459
1462
1458
1459
1457
1456
1454
1453
1453
1453
1449
1447
1446
1446
1444
1445
1443
1445
1446
1449
1455
1456
1460
1463
1468
1470
1473
1478
1485
1488
1490
1494
1501
1503
1502
1503
1504
1502
1502
1499
1498
1498
1499
1503
1503
1506
1512
1519
1520
1526
1535
1535
1546
1552
1554
1558
1562
1565
1568
1570
1569
1572
1573
1578
1579
1582
1582
1583
1583
1583
1582
1577
1573
1570
1563
1560
1552
1550
1549
1546
1547
1548
1552
1561
1570
1580
1590
1600
1611
1616
1625
1629
1632
1631
1628
1622
1616
1613
1607
1600
1593
1591
1587
1585
1582
1579
1574
1571
1575
1572
1573
1578
1578
1583
1584
1587
1587
1589
1595
1594
1595
1597
1595
1593
1587
1586
1582
1577
1569
1564
1561
1561
1558
1557
1555
1554
1555
1556
1561
1560
1562
1562
1569
1575
1573
1581
1584
1587
1590
1590
1589
1591
1590
1586
1582
1571
1561
1552
1545
1533
1525
1524
1525
1525
1533
1542
1550
1555
1565
1572
1575
1580
1579
1581
1575
1568
1565
1553
1552
1552
1542
1543
1535
1535
1535
1535
1527
1525
1530
1524
1527
1526
1528
1534
1529
1535
1534
1534
1534
1535
1527
1527
1526
1524
1527
1533
1543
1551
1552
1556
1565
1572
1578
1582
1582
1583
1579
1573
1568
1562
1553
1546
1531
1520
1516
1511
1507
1503
1506
1505
1513
1515
1519
1525
1525
1531
1529
1533
1530
1533
1529
1533
1532
1531
1531
1531
1534
1541
1543
1545
1548
1551
1551
1552
1552
1550
1547
1545
1543
1535
1534
1531
1531
1531
1532
1534
1534
1542
1546
1549
1551
1552
1557
1558
1558
1559
1555
1553
1552
1547
1542
1535
1535
1534
1534
1534
1544
1549
1552
1556
1559
1565
1566
1567
1566
1558
1553
1550
1541
1527
1523
1519
1515
1515
1515
1519
1520
1527
1541
1546
1553
1559
1563
1570
1571
1569
1568
1566
1565
1559
1558
1555
1554
1557
1560
1563
1571
1580
1587
1594
1602
1612
1616
1623
1625
1627
1627
1625
1625
1616
1616
1613
1611
1609
1611
1614
1621
1631
1648
1663
1680
1700
1717
1732
1744
1754
1759
1755
1749
1737
1719
1701
1680
1662
1644
1621
1613
1603
1598
1596
1597
1597
1601
1607
1613
1618
1626
1630
1626
1621
1616
1610
1600
1593
1583
1571
1562
1552
1551
1543
1535
1535
1533
1530
1526
1526
1520
1519
1517
1509
1503
1497
1493
1489
1488
1488
1491
1495
1501
1504
1510
1516
1520
1523
1526
1530
1531
1533
1535
1534
1531
1532
1533
1532
1532
1534
1533
1534
1535
1542
1535
1535
1535
1535
1530
1527
1522
1521
1520
1518
1518
1519
1520
1524
1527
1535
1546
1552
1555
1558
1559
1558
1552
1535
1520
1497
1470
1440
1408
1376
1346
1319
1296
1279
1270
1274
1290
1321
1363
1421
1489
1584
1682
1798
1920
2064
2215
2381
2565
2759
2973
3208
3447
3696
3703
3707
3707
3709
3709
3706
3706
3707
3706
3709
3706
3707
3705
3646
3455
3183
2834
2429
1985
1547
1119
768
500
322
233
223
298
440
645
883
1152
1417
1672
1882
2035
2133
2176
2160
2106
2010
1897
1771
1643
1525
1434
1367
1328
1312
1326
1358
1406
1463
1527
1600
1655
1705
1740
1762
1774
1775
1758
1736
1712
1680
1655
1628
1605
1585
1575
1568
1564
1565
1569
1579
1587
1599
1603
1616
1622
1635
1644
1648
1653
1659
1664
1664
1667
1667
1670
1671
1670
1670
1667
1664
1664
1661
1658
1658
1658
1660
1662
1666
1674
1680
1690
1695
1705
1712
1717
1723
1723
1725
1726
1725
1727
1725
1727
1728
1728
1734
1737
1744
1747
1757
1766
1774
1780
1790
1792
1795
1797
1795
1792
1790
1782
1776
1774
1770
1772
1766
1771
1776
1781
1791
1805
1815
1829
1841
1854
1865
1872
1882
1891
1895
1903
1903
1903
1903
1904
1904
1907
1908
1915
1919
1927
1934
1937
1949
1959
1968
1973
1979
1986
1994
2000
2000
2004
2007
2011
2020
2022
2028
2032
2037
2046
2051
2055
2062
2064
2066
2072
2073
2076
2077
2080
2083
2085
2085
2085
2086
2087
2089
2087
2083
2083
2077
2073
2064
2062
2053
2037
2028
2011
2000
1988
1978
1968
1959
1954
1948
1947
1944
1943
1946
1950
1939
1942
1937
1926
1921
1909
1901
1884
1869
1853
1832
1815
1801
1777
1767
1751
1741
1739
1723
1718
1708
1702
1693
1686
1677
1667
1655
1643
1625
1616
1598
1584
1567
1555
1546
1533
1521
1517
1510
1507
1501
1499
1498
1497
1499
1497
1499
1494
1495
1489
1488
1484
1475
1471
1466
1457
1456
1450
1449
1445
1445
1443
1446
1450
1451
1456
1455
1456
1456
1456
1454
1449
1445
1443
1438
1437
1435
1435
1431
1434
1435
1437
1438
1441
1444
1448
1449
1451
1451
1453
1451
1447
1446
1443
1440
1438
1434
1434
1429
1430
1429
1429
1431
1434
1438
1443
1450
1453
1456
1461
1467
1471
1472
1472
1473
1472
1472
1472
1472
1473
1473
1472
1474
1476
1476
1474
1476
1474
1477
1477
1477
1478
1482
1485
1489
1493
1502
1513
1519
1530
1541
1549
1552
1555
1557
1558
1555
1552
1550
1546
1534
1530
1525
1525
1521
1522
1525
1527
1535
1548
1552
1557
1565
1572
1581
1584
1584
1584
1587
1584
1584
1579
1580
1579
1577
1575
1575
1578
1583
1584
1589
1597
1599
1605
1607
1606
1606
1607
1603
1600
1597
1587
1584
1578
1574
1572
1572
1571
1574
1577
1583
1584
1586
1590
1590
1589
1590
1588
1584
1584
1575
1568
1561
1552
1552
1547
1542
1535
1545
1549
1552
1557
1568
1575
1584
1584
1589
1587
1584
1582
1570
1563
1552
1545
1534
1527
1527
1525
1527
1532
1542
1545
1551
1552
1556
1559
1557
1558
1555
1555
1552
1550
1546
1542
1535
1533
1531
1531
1533
1534
1534
1533
1534
1535
1534
1530
1526
1522
1520
1516
1510
1509
1506
1505
1510
1509
1517
1520
1522
1530
1534
1542
1547
1551
1550
1549
1547
1542
1534
1526
1520
1516
1510
1507
1504
1503
1499
1502
1502
1504
1502
1503
1506
1507
1511
1513
1516
1520
1520
1526
1529
1532
1533
1534
1535
1535
1535
1533
1531
1534
1533
1535
1535
1535
1541
1543
1541
1535
1541
1539
1533
1527
1526
1520
1520
1515
1512
1511
1508
1509
1511
1515
1515
1516
1521
1521
1520
1525
1526
1526
1527
1530
1533
1534
1543
1547
1542
1547
1547
1545
1543
1535
1534
1531
1529
1522
1520
1519
1515
1511
1509
1507
1507
1504
1506
1505
1508
1506
1506
1511
1510
1515
1515
1513
1515
1514
1518
1515
1511
1514
1509
1507
1505
1503
1503
1503
1504
1506
1509
1519
1521
1529
1535
1549
1553
1557
1562
1565
1563
1564
1559
1554
1552
1545
1534
1529
1525
1522
1522
1526
1529
1534
1542
1551
1554
1562
1568
1571
1573
1573
1570
1569
1562
1556
1551
1546
1534
1530
1523
1521
1520
1521
1522
1527
1534
1535
1545
1549
1550
1552
1550
1546
1542
1534
1531
1527
1523
1520
1520
1520
1519
1520
1522
1527
1535
1547
1552
1558
1566
1571
1571
1577
1578
1579
1581
1581
1582
1581
1584
1585
1591
1595
1600
1609
1617
1626
1636
1648
1655
1666
1675
1680
1685
1689
1691
1685
1681
1675
1665
1655
1643
1628
1616
1600
1594
1582
1571
1568
1562
1562
1559
1564
1566
1572
1568
1571
1571
1571
1569
1566
1561
1552
1551
1547
1543
1525
1522
1520
1519
1509
1514
1510
1499
1494
1493
1488
1485
1482
1479
1479
1479
1483
1488
1492
1497
1501
1506
1513
1519
1520
1524
1531
1535
1546
1551
1552
1557
1562
1565
1565
1563
1566
1562
1555
1554
1551
1545
1535
1529
1530
1526
1529
1531
1533
1547
1552
1553
1557
1558
1559
1556
1555
1552
1552
1547
1545
1531
1532
1527
1525
1519
1513
1500
1487
1471
1453
1427
1407
1380
1359
1334
1315
1299
1296
1298
1313
1344
1389
1451
1534
1636
1745
1890
2041
2215
2401
2611
2832
3071
3325
3573
3703
3706
3708
3707
3707
3703
3706
3705
3706
3706
3706
3705
3697
3550
3312
2990
2602
2160
1691
1234
842
529
303
171
128
175
301
492
739
1008
1294
1570
1808
1984
2101
2147
2128
2064
1952
1817
1670
1522
1401
1302
1233
1202
1197
1223
1272
1342
1424
1513
1603
1680
1736
1784
1814
1827
1822
1805
1776
1743
1708
1671
1635
1601
1584
1569
1562
1558
1565
1581
1591
1613
1632
1649
1665
1680
1696
1703
1710
1710
1708
1703
1696
1685
1677
1665
1660
1650
1648
1643
1641
1647
1648
1653
1664
1676
1683
1693
1705
1712
1719
1728
1728
1729
1729
1728
1728
1725
1725
1720
1718
1723
1719
1721
1725
1728
1732
1738
1744
1751
1754
1762
1767
1771
1775
1776
1777
1776
1778
1782
1783
1791
1793
1798
1805
1810
1819
1823
1829
1837
1842
1852
1856
1859
1867
1870
1873
1872
1875
1877
1878
1881
1882
1882
1880
1882
1887
1886
1892
1898
1903
1911
1920
1926
1936
1942
1951
1956
1967
1971
1977
1984
1992
2000
2003
2009
2016
2022
2029
2032
2033
2038
2042
2042
2045
2046
2051
2047
2039
2042
2042
2042
2042
2036
2039
2043
2055
2057
2058
2063
2064
2066
2066
2066
2064
2064
2063
2054
2047
2042
2037
2033
2029
2022
2019
2014
2011
2001
1997
1990
1983
1970
1957
1945
1929
1917
1903
1885
1872
1858
1849
1840
1834
1825
1823
1820
1819
1815
1808
1802
1792
1779
1762
1744
1723
1706
1683
1662
1645
1627
1611
1602
1599
1591
1589
1590
1589
1588
1590
1585
1583
1576
1565
1552
1535
1521
1509
1493
1487
1478
1472
1472
1472
1474
1479
1486
1490
1494
1499
1501
1502
1499
1491
1484
1474
1465
1456
1446
1435
1426
1423
1422
1418
1419
1423
1424
1430
1435
1441
1446
1449
1454
1455
1452
1451
1449
1445
1445
1443
1442
1441
1443
1439
1443
1442
1441
1445
1440
1437
1435
1431
1430
1426
1424
1424
1422
1422
1422
1424
1424
1430
1437
1441
1447
1451
1456
1458
1465
1468
1467
1472
1475
1476
1481
1487
1488
1493
1497
1499
1506
1509
1513
1514
1515
1517
1515
1515
1511
1505
1502
1494
1488
1485
1478
1475
1472
1475
1478
1486
1493
1505
1520
1527
1544
1552
1564
1570
1575
1578
1581
1579
1579
1571
1567
1562
1555
1551
1545
1539
1530
1527
1528
1527
1528
1534
1545
1552
1557
1565
1579
1584
1589
1606
1598
1601
1603
1605
1603
1602
1600
1600
1598
1594
1595
1591
1594
1594
1591
1592
1592
1589
1589
1584
1584
1581
1575
1570
1570
1567
1569
1573
1577
1579
1584
1589
1591
1600
1601
1603
1603
1606
1604
1600
1597
1590
1584
1580
1570
1556
1555
1547
1549
1547
1545
1546
1546
1549
1549
1552
1552
1551
1554
1552
1559
1557
1552
1554
1552
1550
1543
1535
1533
1521
1517
1514
1507
1515
1511
1511
1515
1521
1526
1530
1541
1548
1552
1555
1555
1557
1553
1555
1554
1552
1547
1545
1535
1534
1531
1523
1522
1520
1520
1515
1515
1513
1512
1511
1511
1505
1505
1503
1504
1505
1505
1510
1513
1517
1521
1524
1530
1531
1535
1535
1545
1546
1542
1533
1530
1525
1520
1518
1515
1509
1505
1504
1500
1501
1504
1503
1502
1501
1504
1504
1503
1502
1502
1506
1507
1509
1514
1520
1525
1527
1535
1534
1535
1535
1535
1534
1533
1530
1531
1526
1526
1526
1521
1524
1523
1524
1522
1523
1529
1526
1526
1530
1531
1530
1527
1523
1520
1517
1515
1506
1500
1494
1490
1488
1488
1489
1490
1495
1506
1511
1520
1529
1535
1550
1552
1554
1558
1555
1557
1553
1551
1543
1534
1526
1520
1513
1507
1505
1504
1503
1505
1504
1509
1511
1517
1518
1519
1520
1523
1521
1521
1521
1520
1521
1520
1517
1520
1520
1521
1526
1533
1543
1552
1564
1573
1584
1593
1600
1611
1615
1616
1617
1616
1618
1616
1616
1616
1616
1618
1625
1632
1642
1653
1667
1681
1696
1712
1722
1733
1737
1737
1729
1715
1701
1680
1661
1638
1616
1601
1584
1576
1569
1562
1563
1566
1569
1579
1584
1588
1594
1595
1599
1594
1594
1585
1582
1573
1567
1562
1554
1549
1542
1531
1527
1520
1517
1511
1505
1501
1494
1488
1485
1482
1484
1479
1480
1485
1488
1491
1498
1504
1511
1518
1522
1524
1523
1523
1520
1520
1514
1507
1502
1496
1496
1490
1491
1490
1495
1503
1509
1517
1522
1531
1541
1547
1552
1552
1552
1552
1552
1550
1543
1535
1533
1530
1526
1524
1522
1526
1526
1530
1531
1531
1542
1535
1533
1527
1517
1504
1486
1461
1437
1408
1385
1357
1329
1310
1295
1293
1296
1313
1344
1392
1457
1535
1635
1746
1872
2018
2176
2351
2537
2746
2967
3205
3446
3696
3705
3707
3703
3703
3705
3705
3703
3706
3706
3705
3703
3706
3583
3370
3061
2694
2266
1808
1345
928
597
347
192
121
141
242
418
648
908
1190
1460
1712
1904
2032
2098
2096
2033
1935
1805
1661
1515
1392
1289
1216
1179
1171
1200
1253
1328
1418
1517
1617
1706
1774
1824
1856
1861
1853
1823
1782
1735
1685
1637
1593
1558
1530
1520
1515
1520
1535
1557
1585
1608
1632
1654
1674
1687
1697
1701
1705
1702
1697
1686
1680
1677
1665
1664
1661
1662
1659
1661
1666
1669
1677
1681
1685
1694
1696
1698
1701
1701
1701
1702
1701
1706
1702
1707
1706
1710
1711
1710
1715
1718
1719
1728
1729
1739
1744
1747
1759
1766
1776
1780
1790
1792
1793
1799
1802
1804
1803
1801
1806
1806
1808
1807
1808
1809
1811
1819
1819
1822
1829
1830
1834
1842
1847
1856
1853
1857
1867
1872
1872
1877
1887
1886
1891
1898
1902
1913
1916
1922
1927
1936
1939
1951
1963
1969
1975
1984
1993
2000
2013
2018
2027
2032
2035
2043
2045
2047
2047
2053
2055
2057
2061
2064
2066
2077
2081
2090
2096
2101
2110
2114
2121
2127
2128
2130
2131
2127
2122
2113
2110
2100
2095
2086
2081
2078
2075
2077
2077
2081
2086
2087
2088
2091
2084
2083
2075
2065
2054
2037
2027
2009
1996
1982
1967
1958
1943
1930
1919
1904
1897
1881
1866
1853
1838
1824
1808
1793
1782
1766
1760
1747
1738
1728
1719
1711
1699
1687
1678
1665
1653
1643
1631
1619
1609
1602
1594
1584
1574
1566
1553
1551
1535
1525
1520
1506
1499
1490
1487
1479
1477
1472
1472
1469
1471
1471
1469
1472
1472
1474
1478
1478
1478
1479
1473
1477
1472
1472
1468
1463
1462
1457
1455
1455
1453
1450
1445
1450
1446
1443
1443
1442
1443
1441
1440
1442
1441
1440
1443
1442
1445
1446
1449
1450
1448
1447
1443
1441
1437
1435
1435
1432
1431
1430
1432
1436
1438
1441
1443
1445
1450
1453
1451
1450
1447
1447
1443
1440
1441
1439
1444
1444
1449
1455
1459
1467
1472
1477
1487
1488
1492
1494
1497
1497
1498
1499
1498
1497
1497
1495
1497
1491
1490
1493
1491
1491
1494
1495
1503
1507
1515
1517
1521
1526
1531
1540
1543
1548
1547
1546
1550
1551
1549
1546
1546
1551
1552
1553
1557
1562
1569
1573
1578
1582
1584
1586
1589
1590
1591
1591
1594
1596
1593
1594
1595
1595
1595
1598
1598
1598
1600
1599
1599
1599
1595
1594
1587
1584
1583
1581
1579
1574
1572
1574
1574
1579
1579
1582
1584
1584
1588
1590
1589
1590
1585
1584
1583
1580
1577
1571
1570
1570
1568
1568
1569
1568
1570
1570
1571
1570
1570
1567
1569
1563
1563
1565
1563
1564
1563
1564
1565
1559
1555
1553
1552
1549
1543
1535
1529
1527
1526
1527
1525
1529
1529
1534
1544
1548
1552
1557
1566
1568
1569
1573
1571
1573
1568
1566
1558
1554
1551
1541
1533
1531
1523
1523
1520
1520
1519
1517
1519
1519
1518
1520
1520
1521
1524
1524
1522
1524
1530
1530
1529
1531
1527
1527
1524
1523
1522
1522
1527
1526
1526
1533
1535
1547
1549
1553
1555
1557
1561
1563
1559
1557
1553
1552
1550
1542
1531
1525
1522
1516
1510
1508
1507
1510
1514
1519
1521
1530
1543
1547
1551
1552
1552
1550
1545
1533
1525
1520
1517
1511
1507
1508
1510
1517
1521
1526
1535
1546
1552
1553
1557
1561
1557
1555
1552
1546
1535
1534
1531
1525
1527
1529
1533
1546
1551
1555
1567
1571
1583
1581
1584
1584
1582
1583
1581
1580
1579
1582
1584
1584
1587
1595
1597
1600
1604
1606
1608
1606
1613
1613
1613
1616
1622
1631
1637
1648
1662
1670
1684
1698
1707
1714
1715
1717
1712
1701
1690
1676
1664
1647
1630
1615
1603
1597
1587
1584
1582
1581
1584
1584
1584
1585
1585
1588
1585
1584
1583
1573
1568
1557
1550
1541
1524
1519
1508
1498
1488
1483
1478
1472
1470
1469
1470
1472
1472
1477
1482
1487
1488
1497
1498
1502
1503
1499
1504
1501
1499
1501
1508
1508
1506
1514
1516
1517
1520
1524
1526
1530
1531
1533
1526
1523
1520
1519
1520
1507
1510
1509
1506
1511
1519
1518
1521
1531
1534
1543
1547
1543
1550
1542
1535
1529
1521
1519
1507
1503
1493
1483
1478
1467
1456
1439
1422
1406
1387
1363
1347
1335
1327
1323
1332
1350
1385
1433
1489
1578
1671
1781
1904
2042
2192
2363
2541
2742
2949
3179
3411
3655
3708
3703
3703
3703
3706
3707
3706
3707
3703
3703
3706
3706
3705
3598
3388
3101
2742
2333
1887
1433
1017
680
416
239
144
138
208
352
560
801
1072
1344
1611
1840
2020
2142
2194
2199
2157
2074
1955
1827
1697
1574
1467
1390
1342
1315
1323
1346
1392
1453
1520
1586
1648
1703
1744
1773
1786
1788
1778
1761
1739
1710
1680
1652
1623
1603
1590
1580
1579
1581
1584
1600
1611
1629
1644
1653
1665
1674
1679
1680
1680
1680
1680
1675
1666
1664
1659
1657
1657
1655
1659
1662
1665
1673
1675
1680
1681
1685
1689
1691
1694
1697
1699
1701
1702
1703
1710
1712
1719
1727
1732
1741
1749
1757
1760
1767
1767
1773
1776
1773
1775
1776
1774
1776
1775
1774
1776
1777
1781
1782
1789
1792
1795
1802
1807
1809
1816
1823
1831
1839
1841
1850
1853
1856
1856
1859
1863
1863
1867
1872
1876
1889
1902
1911
1922
1936
1948
1962
1969
1979
1985
1990
1996
2000
2000
2000
2002
2001
2007
2007
2014
2022
2031
2038
2046
2061
2069
2082
2093
2098
2107
2112
2117
2127
2127
2128
2131
2135
2139
2140
2145
2145
2150
2154
2155
2160
2162
2166
2169
2165
2165
2163
2159
2155
2145
2132
2128
2124
2117
2112
2112
2110
2112
2113
2115
2118
2117
2121
2117
2113
2107
2098
2091
2073
2054
2029
2001
1983
1961
1938
1920
1904
1890
1878
1869
1859
1853
1843
1837
1826
1809
1795
1778
1763
1744
1726
1706
1687
1671
1654
1642
1629
1616
1611
1600
1597
1589
1584
1579
1567
1558
1550
1534
1521
1509
1493
1485
1472
1465
1456
1455
1447
1447
1450
1449
1453
1455
1457
1456
1458
1459
1456
1456
1451
1444
1434
1428
1424
1421
1417
1415
1416
1419
1424
1427
1431
1437
1439
1443
1439
1438
1435
1431
1426
1423
1415
1411
1409
1408
1404
1403
1405
1408
1409
1409
1413
1419
1422
1424
1428
1429
1428
1428
1430
1426
1424
1423
1419
1413
1413
1408
1411
1413
1413
1415
1420
1424
1429
1432
1436
1437
1435
1438
1438
1439
1435
1437
1439
1441
1445
1453
1457
1466
1472
1476
1486
1490
1494
1500
1504
1505
1505
1503
1499
1492
1487
1479
1472
1464
1456
1456
1455
1455
1459
1470
1475
1488
1499
1513
1522
1535
1549
1555
1559
1561
1558
1557
1552
1550
1542
1535
1531
1531
1529
1529
1528
1530
1534
1542
1543
1547
1552
1552
1552
1552
1552
1552
1552
1552
1552
1552
1554
1557
1559
1563
1566
1569
1574
1579
1575
1577
1578
1579
1577
1574
1573
1573
1571
1570
1571
1570
1571
1573
1570
1570
1568
1567
1563
1558
1553
1550
1541
1534
1530
1520
1520
1515
1514
1510
1518
1517
1523
1525
1534
1551
1554
1563
1571
1578
1577
1581
1570
1575
1568
1565
1561
1552
1552
1551
1548
1547
1549
1545
1549
1542
1543
1533
1529
1529
1526
1524
1521
1520
1520
1519
1518
1517
1514
1518
1520
1520
1525
1527
1533
1535
1535
1535
1535
1535
1533
1533
1531
1529
1532
1529
1527
1531
1530
1530
1532
1535
1541
1541
1546
1546
1547
1547
1551
1547
1546
1546
1543
1542
1541
1535
1532
1531
1529
1530
1527
1530
1527
1527
1526
1521
1521
1520
1520
1518
1515
1515
1513
1514
1511
1513
1514
1515
1517
1518
1520
1524
1527
1531
1539
1543
1549
1550
1551
1552
1552
1552
1549
1544
1541
1533
1534
1530
1534
1535
1547
1552
1556
1567
1583
1586
1598
1605
1615
1619
1627
1632
1635
1637
1634
1629
1619
1616
1610
1604
1600
1602
1607
1616
1629
1645
1661
1678
1695
1710
1721
1727
1728
1723
1712
1695
1674
1650
1626
1603
1586
1569
1557
1551
1550
1552
1552
1557
1564
1573
1580
1584
1588
1586
1588
1584
1579
1570
1565
1554
1550
1542
1529
1522
1520
1510
1505
1499
1489
1488
1479
1473
1471
1467
1467
1463
1465
1467
1471
1477
1485
1489
1497
1505
1516
1519
1521
1524
1526
1525
1523
1521
1520
1520
1520
1519
1517
1517
1517
1517
1517
1517
1517
1515
1511
1511
1508
1507
1504
1503
1503
1503
1508
1509
1515
1519
1522
1527
1533
1541
1547
1551
1552
1555
1555
1552
1551
1532
1520
1495
1473
1450
1419
1387
1357
1328
1302
1282
1270
1267
1279
1300
1339
1392
1460
1547
1643
1757
1881
2017
2173
2335
2513
2711
2926
3152
3391
3633
3708
3709
3710
3705
3707
3706
3707
3707
3705
3707
3705
3705
3705
3703
3566
3334
3024
2650
2225
1768
1317
912
592
350
195
128
146
247
418
649
914
1202
1488
1759
1978
2139
2238
2270
2251
2179
2074
1937
1795
1655
1522
1423
1354
1312
1301
1323
1362
1420
1488
1566
1634
1692
1735
1765
1778
1778
1770
1744
1717
1685
1653
1623
1600
1582
1563
1555
1554
1554
1563
1574
1586
1601
1615
1630
1642
1654
1664
1674
1680
1683
1687
1688
1691
1686
1682
1680
1678
1674
1671
1666
1664
1663
1663
1661
1657
1658
1655
1660
1664
1669
1673
1680
1690
1698
1707
1713
1723
1731
1737
1744
1747
1750
1754
1751
1753
1749
1750
1745
1747
1746
1751
1754
1761
1764
1773
1778
1786
1792
1797
1803
1806
1803
1805
1802
1797
1795
1793
1793
1792
1798
1802
1808
1817
1825
1839
1851
1860
1872
1883
1893
1904
1908
1919
1923
1926
1931
1933
1936
1938
1945
1948
1952
1955
1959
1959
1965
1968
1973
1979
1984
1989
2000
2013
2023
2032
2054
2066
2081
2096
2112
2125
2138
2150
2157
2162
2164
2169
2166
2161
2160
2153
2146
2139
2129
2126
2121
2118
2117
2117
2118
2125
2128
2135
2141
2150
2159
2165
2171
2172
2170
2165
2160
2155
2139
2126
2112
2093
2081
2064
2045
2032
2014
2003
1991
1982
1971
1962
1954
1941
1932
1919
1906
1895
1875
1862
1840
1824
1802
1786
1765
1746
1727
1714
1693
1679
1665
1646
1626
1607
1594
1584
1568
1556
1547
1542
1540
1527
1531
1528
1522
1529
1529
1531
1527
1523
1520
1518
1510
1503
1494
1487
1479
1472
1460
1456
1447
1441
1430
1426
1424
1422
1422
1418
1415
1415
1415
1417
1414
1412
1411
1408
1405
1408
1406
1402
1404
1405
1408
1408
1411
1417
1421
1424
1429
1433
1437
1437
1438
1440
1439
1435
1431
1426
1424
1420
1418
1415
1411
1413
1415
1415
1418
1424
1424
1425
1430
1430
1431
1431
1429
1426
1424
1421
1419
1418
1418
1419
1421
1424
1429
1435
1444
1453
1456
1466
1470
1470
1472
1473
1471
1465
1457
1455
1447
1441
1436
1433
1434
1437
1439
1447
1455
1462
1472
1477
1486
1491
1500
1505
1507
1508
1507
1514
1511
1511
1513
1515
1519
1520
1524
1529
1527
1529
1527
1526
1520
1518
1514
1510
1506
1503
1502
1500
1501
1503
1505
1510
1517
1523
1533
1545
1554
1563
1571
1575
1578
1584
1583
1582
1575
1575
1570
1566
1563
1557
1553
1552
1552
1554
1557
1561
1565
1570
1575
1577
1576
1573
1568
1557
1550
1535
1525
1516
1505
1499
1495
1491
1499
1504
1510
1520
1527
1543
1552
1561
1567
1572
1575
1578
1578
1573
1570
1568
1559
1553
1552
1545
1542
1535
1531
1532
1531
1534
1533
1533
1533
1534
1532
1534
1529
1526
1525
1523
1522
1523
1522
1522
1525
1526
1531
1534
1535
1542
1543
1542
1541
1535
1534
1534
1529
1527
1525
1524
1520
1518
1517
1507
1507
1507
1507
1510
1512
1519
1521
1525
1530
1534
1541
1542
1541
1535
1535
1532
1526
1526
1520
1517
1517
1516
1512
1513
1515
1517
1519
1520
1520
1524
1522
1521
1520
1517
1518
1512
1510
1507
1509
1507
1510
1513
1514
1518
1520
1522
1525
1531
1534
1541
1545
1547
1550
1550
1550
1552
1550
1546
1542
1531
1529
1520
1519
1514
1511
1515
1517
1520
1528
1542
1552
1559
1571
1584
1588
1593
1597
1599
1599
1597
1597
1596
1594
1595
1595
1600
1600
1603
1616
1621
1632
1647
1652
1664
1676
1685
1696
1708
1713
1717
1715
1712
1708
1697
1680
1665
1648
1631
1615
1596
1584
1571
1561
1555
1552
1552
1552
1552
1553
1554
1557
1558
1559
1559
1555
1552
1552
1546
1534
1530
1524
1519
1515
1506
1499
1493
1488
1483
1475
1472
1466
1464
1460
1461
1461
1468
1472
1478
1482
1488
1490
1495
1497
1498
1498
1499
1495
1492
1489
1487
1485
1478
1475
1473
1472
1472
1472
1472
1473
1481
1486
1488
1494
1501
1504
1508
1514
1518
1520
1521
1522
1524
1523
1526
1531
1529
1532
1533
1534
1535
1535
1535
1531
1530
1522
1518
1505
1488
1474
1454
1426
1403
1375
1344
1322
1296
1274
1262
1249
1253
1267
1296
1338
1393
1467
1561
1664
1782
1917
2064
2221
2391
2579
2785
3003
3237
3475
3700
3705
3706
3708
3706
3705
3706
3707
3709
3706
3706
3706
3705
3706
3597
3383
3092
2729
2305
1879
1440
1030
702
450
285
207
209
299
449
656
906
1169
1443
1694
1895
2051
2145
2176
2160
2096
2000
1876
1754
1629
1516
1431
1367
1339
1331
1344
1391
1447
1511
1581
1642
1692
1731
1759
1767
1765
1747
1725
1693
1662
1621
1589
1564
1542
1520
1515
1516
1520
1529
1551
1563
1583
1598
1615
1623
1637
1645
1650
1649
1650
1648
1643
1638
1632
1628
1629
1627
1629
1629
1635
1645
1648
1654
1657
1664
1665
1669
1670
1673
1675
1677
1680
1680
1680
1685
1689
1697
1703
1710
1717
1723
1729
1734
1741
1743
1743
1743
1743
1742
1738
1731
1728
1724
1717
1716
1714
1713
1713
1721
1728
1733
1744
1757
1771
1781
1793
1804
1811
1819
1829
1828
1826
1825
1826
1825
1822
1824
1826
1831
1840
1847
1856
1868
1876
1890
1904
1911
1920
1929
1936
1939
1942
1946
1949
1952
1953
1954
1957
1964
1968
1973
1982
1989
2000
2010
2021
2033
2051
2063
2073
2085
2091
2097
2103
2106
2106
2106
2107
2107
2103
2099
2096
2096
2092
2089
2089
2090
2089
2091
2093
2094
2095
2096
2095
2095
2094
2089
2083
2077
2074
2064
2057
2043
2032
2021
2012
2002
1992
1983
1973
1963
1948
1936
1929
1914
1904
1893
1883
1872
1867
1855
1845
1838
1827
1815
1803
1792
1776
1763
1745
1728
1712
1692
1677
1656
1642
1623
1610
1598
1585
1574
1567
1559
1554
1555
1553
1553
1554
1552
1552
1548
1544
1530
1520
1515
1506
1498
1493
1483
1482
1472
1472
1466
1463
1458
1456
1456
1455
1455
1450
1442
1434
1428
1424
1420
1411
1409
1407
1403
1403
1405
1403
1405
1408
1409
1417
1422
1425
1429
1437
1434
1434
1429
1425
1418
1410
1403
1394
1386
1379
1370
1367
1366
1369
1372
1378
1383
1392
1396
1405
1408
1415
1414
1419
1424
1424
1425
1430
1437
1440
1443
1447
1454
1456
1459
1462
1465
1467
1466
1467
1458
1456
1456
1453
1446
1447
1447
1451
1454
1458
1458
1467
1471
1472
1474
1477
1475
1475
1472
1472
1466
1462
1458
1456
1456
1456
1459
1465
1471
1482
1488
1498
1507
1520
1533
1543
1552
1558
1563
1568
1568
1567
1565
1559
1555
1552
1551
1543
1541
1535
1534
1533
1533
1535
1545
1545
1550
1551
1552
1552
1554
1552
1554
1556
1557
1558
1559
1560
1562
1569
1573
1575
1580
1584
1584
1584
1586
1585
1584
1584
1580
1576
1569
1567
1559
1558
1552
1552
1551
1551
1547
1547
1547
1547
1547
1547
1549
1549
1547
1551
1549
1547
1545
1542
1533
1531
1527
1525
1525
1529
1525
1530
1534
1535
1542
1547
1552
1553
1555
1561
1562
1564
1563
1565
1565
1565
1564
1564
1561
1563
1558
1558
1557
1552
1552
1549
1545
1535
1531
1524
1520
1516
1513
1508
1507
1503
1505
1507
1509
1513
1518
1518
1520
1521
1521
1522
1523
1526
1531
1531
1530
1534
1535
1535
1533
1534
1533
1527
1532
1533
1530
1531
1533
1534
1543
1543
1545
1543
1546
1543
1535
1529
1525
1520
1517
1511
1507
1504
1499
1500
1499
1503
1520
1514
1520
1527
1535
1546
1549
1552
1552
1552
1550
1543
1531
1520
1505
1497
1489
1486
1481
1478
1485
1488
1503
1513
1531
1552
1569
1585
1603
1617
1616
1621
1621
1616
1616
1611
1600
1597
1584
1575
1573
1571
1577
1582
1587
1602
1618
1638
1655
1674
1691
1705
1713
1721
1725
1725
1719
1712
1698
1686
1667
1651
1633
1616
1603
1586
1575
1565
1556
1552
1552
1553
1557
1565
1568
1573
1579
1584
1584
1584
1581
1577
1568
1557
1551
1534
1521
1515
1501
1493
1485
1478
1473
1470
1466
1463
1460
1460
1466
1471
1475
1483
1488
1494
1503
1506
1507
1513
1513
1509
1506
1502
1498
1494
1489
1490
1491
1495
1501
1507
1514
1520
1525
1532
1533
1531
1529
1523
1519
1511
1502
1494
1489
1486
1482
1485
1485
1488
1491
1495
1499
1506
1509
1513
1518
1519
1521
1526
1529
1535
1541
1542
1534
1527
1520
1506
1489
1469
1446
1419
1390
1360
1330
1308
1287
1278
1279
1290
1317
1360
1419
1491
1594
1707
1824
1968
2128
2304
2490
2698
2914
3152
3393
3647
3706
3705
3707
3705
3703
3705
3707
3706
3707
3706
3705
3705
3651
3472
3202
2858
2448
1998
1527
1091
722
432
238
128
112
177
322
534
781
1056
1333
1598
1815
1975
2075
2105
2078
1998
1887
1755
1616
1482
1375
1290
1234
1213
1218
1255
1310
1382
1466
1552
1632
1699
1750
1790
1808
1810
1802
1776
1744
1703
1664
1623
1590
1565
1546
1529
1525
1525
1542
1557
1581
1600
1619
1643
1658
1673
1680
1684
1684
1681
1680
1665
1655
1643
1632
1621
1616
1616
1616
1616
1621
1629
1641
1651
1664
1679
1693
1702
1712
1722
1724
1728
1725
1722
1716
1712
1701
1689
1680
1676
1675
1674
1675
1683
1695
1705
1717
1729
1744
1760
1777
1787
1797
1806
1810
1810
1808
1808
1802
1797
1788
1779
1775
1770
1770
1770
1774
1779
1789
1793
1807
1814
1826
1837
1842
1848
1856
1857
1863
1869
1870
1872
1874
1878
1883
1889
1897
1903
1906
1919
1927
1936
1940
1946
1952
1957
1963
1966
1966
1968
1973
1978
1982
1985
1994
2000
2006
2014
2023
2032
2040
2053
2064
2070
2082
2087
2090
2091
2089
2086
2083
2075
2067
2064
2062
2058
2057
2046
2043
2043
2038
2036
2032
2032
2032
2032
2032
2032
2031
2032
2032
2034
2033
2035
2036
2034
2034
2032
2022
2015
2003
1990
1977
1962
1942
1927
1908
1890
1872
1856
1840
1823
1808
1797
1784
1775
1765
1753
1744
1734
1727
1717
1706
1693
1680
1666
1649
1636
1621
1612
1600
1590
1584
1580
1572
1567
1567
1565
1559
1558
1553
1552
1549
1533
1525
1518
1509
1499
1489
1485
1477
1472
1469
1468
1469
1466
1469
1469
1472
1472
1472
1473
1476
1473
1474
1472
1472
1468
1463
1459
1455
1446
1438
1429
1419
1411
1408
1399
1392
1392
1391
1391
1394
1397
1405
1408
1420
1424
1426
1435
1441
1446
1449
1451
1454
1456
1456
1456
1453
1449
1443
1441
1437
1433
1426
1424
1421
1412
1412
1408
1407
1408
1409
1410
1419
1424
1428
1442
1456
1466
1476
1488
1503
1514
1520
1526
1531
1527
1524
1520
1515
1506
1498
1491
1487
1482
1485
1482
1483
1488
1498
1502
1513
1519
1533
1542
1543
1550
1554
1554
1552
1563
1558
1554
1552
1550
1552
1552
1552
1551
1552
1553
1559
1562
1562
1565
1566
1565
1559
1559
1559
1555
1557
1558
1565
1569
1578
1583
1586
1593
1600
1605
1607
1609
1612
1612
1609
1602
1602
1600
1599
1598
1598
1598
1598
1599
1600
1600
1603
1600
1599
1591
1586
1580
1570
1562
1556
1551
1546
1546
1547
1552
1561
1570
1584
1595
1603
1612
1616
1617
1616
1614
1603
1594
1583
1567
1553
1541
1525
1520
1520
1520
1521
1529
1546
1554
1567
1577
1584
1591
1595
1597
1594
1590
1585
1582
1571
1561
1552
1547
1535
1530
1531
1531
1531
1543
1547
1551
1552
1555
1562
1561
1561
1558
1552
1550
1546
1534
1527
1523
1523
1522
1523
1528
1530
1542
1550
1552
1554
1557
1566
1568
1568
1567
1565
1560
1553
1550
1531
1520
1510
1501
1490
1486
1483
1479
1482
1482
1488
1495
1507
1519
1529
1543
1555
1562
1569
1571
1571
1570
1567
1561
1552
1545
1533
1522
1519
1511
1507
1504
1507
1507
1515
1523
1542
1552
1568
1584
1598
1606
1616
1622
1626
1626
1620
1616
1609
1600
1591
1584
1573
1566
1563
1562
1567
1578
1589
1602
1624
1649
1671
1692
1712
1728
1742
1744
1743
1741
1729
1717
1701
1684
1664
1648
1627
1610
1597
1584
1571
1566
1566
1568
1574
1583
1590
1600
1607
1613
1617
1619
1617
1614
1603
1592
1581
1563
1547
1530
1517
1506
1499
1490
1488
1489
1488
1490
1490
1489
1489
1489
1488
1488
1488
1487
1486
1483
1482
1479
1483
1486
1489
1494
1501
1507
1514
1518
1520
1520
1520
1520
1520
1515
1508
1504
1498
1492
1488
1487
1485
1485
1487
1490
1499
1505
1515
1521
1529
1542
1546
1550
1553
1555
1555
1563
1561
1562
1563
1561
1558
1556
1552
1552
1552
1549
1545
1542
1529
1520
1503
1487
1466
1440
1413
1386
1360
1337
1318
1300
1296
1300
1324
1359
1408
1478
1572
1680
1801
1938
2098
2267
2451
2658
2877
3107
3344
3594
3703
3703
3701
3706
3703
3705
3706
3703
3705
3705
3707
3707
3631
3431
3152
2797
2374
1914
1439
998
639
361
174
75
69
154
318
545
810
1103
1392
1662
1883
2039
2129
2150
2103
2003
1870
1712
1552
1402
1280
1186
1129
1106
1123
1173
1256
1357
1469
1588
1697
1792
1863
1910
1936
1936
1918
1877
1824
1765
1699
1638
1584
1540
1504
1486
1483
1488
1506
1535
1569
1600
1634
1664
1687
1706
1716
1720
1715
1710
1697
1680
1665
1648
1634
1625
1617
1619
1618
1630
1642
1654
1673
1685
1699
1712
1719
1727
1728
1727
1726
1719
1718
1714
1712
1712
1710
1711
1712
1713
1719
1728
1735
1744
1747
1755
1761
1767
1762
1765
1763
1761
1761
1757
1757
1758
1761
1760
1764
1773
1776
1781
1792
1797
1805
1809
1818
1826
1831
1839
1841
1846
1854
1855
1857
1861
1866
1871
1872
1873
1874
1883
1883
1887
1887
1893
1897
1895
1905
1913
1920
1927
1939
1951
1969
1983
1993
2002
2019
2030
2032
2042
2046
2046
2051
2051
2047
2044
2043
2039
2041
2038
2041
2041
2047
2053
2061
2064
2074
2081
2090
2096
2100
2106
2110
2112
2112
2109
2103
2099
2094
2083
2077
2066
2063
2053
2042
2038
2031
2028
2019
2015
2013
2007
2000
2000
1995
1993
1987
1982
1977
1971
1965
1957
1947
1936
1924
1914
1897
1879
1866
1853
1839
1821
1805
1789
1774
1762
1744
1730
1715
1706
1691
1680
1670
1665
1655
1651
1648
1642
1633
1626
1617
1613
1603
1598
1584
1575
1562
1553
1545
1531
1521
1519
1517
1515
1517
1520
1522
1524
1529
1530
1529
1530
1520
1513
1502
1488
1475
1461
1455
1440
1431
1424
1418
1419
1423
1425
1433
1443
1453
1462
1472
1479
1487
1490
1493
1493
1488
1482
1472
1466
1457
1449
1440
1430
1428
1424
1425
1427
1431
1435
1439
1447
1451
1456
1456
1457
1457
1459
1461
1462
1462
1461
1465
1463
1463
1466
1471
1472
1473
1475
1478
1481
1483
1481
1481
1482
1478
1477
1475
1474
1475
1475
1482
1485
1488
1493
1498
1505
1510
1518
1521
1523
1529
1533
1531
1535
1533
1534
1534
1531
1534
1534
1533
1532
1534
1534
1535
1535
1547
1550
1552
1555
1563
1567
1570
1575
1579
1578
1579
1581
1581
1581
1580
1580
1582
1584
1584
1586
1586
1591
1595
1599
1600
1606
1607
1615
1617
1619
1622
1630
1627
1627
1626
1617
1618
1615
1609
1602
1597
1591
1588
1585
1584
1584
1585
1588
1590
1597
1600
1606
1610
1613
1616
1616
1619
1619
1618
1617
1616
1615
1615
1606
1603
1600
1598
1591
1585
1585
1584
1582
1583
1578
1580
1579
1581
1581
1581
1580
1583
1584
1582
1582
1581
1579
1576
1574
1573
1568
1566
1561
1563
1559
1558
1559
1562
1563
1562
1562
1563
1564
1563
1561
1559
1559
1557
1555
1553
1552
1552
1553
1555
1555
1557
1559
1565
1570
1570
1572
1574
1575
1575
1575
1573
1572
1569
1563
1562
1555
1554
1552
1549
1546
1545
1535
1545
1550
1547
1546
1549
1551
1553
1553
1557
1559
1558
1556
1557
1554
1552
1548
1545
1540
1534
1531
1530
1527
1523
1523
1525
1529
1535
1547
1552
1563
1571
1584
1595
1601
1610
1616
1623
1625
1629
1629
1628
1630
1629
1622
1622
1617
1617
1616
1616
1618
1623
1634
1647
1658
1671
1686
1703
1719
1734
1746
1758
1766
1761
1760
1746
1733
1715
1692
1665
1643
1616
1595
1577
1559
1549
1543
1545
1548
1552
1564
1574
1586
1599
1607
1615
1616
1616
1614
1606
1595
1584
1572
1553
1535
1521
1511
1503
1495
1491
1485
1485
1482
1481
1481
1480
1482
1482
1481
1482
1485
1486
1488
1487
1487
1488
1488
1493
1494
1498
1501
1504
1511
1516
1518
1519
1522
1521
1522
1520
1520
1520
1515
1510
1511
1508
1509
1510
1514
1519
1522
1527
1534
1540
1546
1552
1552
1553
1553
1552
1547
1545
1541
1535
1526
1523
1520
1511
1502
1491
1482
1468
1454
1430
1412
1392
1368
1351
1332
1315
1310
1311
1322
1340
1372
1419
1482
1567
1662
1773
1895
2032
2189
2352
2531
2725
2940
3166
3397
3636
3705
3705
3709
3703
3703
3707
3707
3701
3705
3701
3702
3702
3667
3504
3258
2931
2543
2110
1655
1209
827
526
305
176
129
172
290
473
707
976
1254
1520
1773
1962
2096
2160
2172
2129
2046
1936
1808
1677
1555
1451
1375
1328
1312
1319
1351
1406
1472
1547
1616
1675
1725
1759
1779
1782
1776
1749
1721
1685
1651
1618
1593
1569
1554
1552
1553
1562
1578
1596
1616
1635
1658
1677
1689
1704
1710
1712
1713
1712
1706
1701
1687
1681
1671
1664
1656
1650
1648
1647
1648
1652
1655
1665
1678
1686
1698
1710
1717
1723
1728
1728
1733
1734
1733
1737
1734
1733
1731
1734
1735
1734
1737
1738
1740
1742
1744
1745
1747
1757
1760
1765
1773
1777
1787
1794
1801
1809
1815
1825
1829
1830
1829
1829
1828
1826
1819
1817
1815
1813
1809
1809
1814
1818
1824
1829
1838
1845
1858
1870
1877
1895
1905
1918
1928
1937
1946
1952
1958
1963
1968
1968
1968
1969
1969
1970
1970
1971
1970
1976
1984
1987
2000
2010
2026
2038
2055
2066
2080
2094
2099
2112
2112
2121
2124
2124
2122
2123
2122
2121
2117
2113
2112
2112
2112
2112
2112
2112
2112
2114
2113
2117
2115
2116
2115
2112
2112
2106
2102
2096
2090
2081
2074
2067
2063
2054
2039
2033
2025
2016
2007
1999
1990
1984
1973
1968
1958
1948
1936
1926
1915
1901
1887
1872
1856
1840
1821
1806
1783
1766
1744
1728
1712
1694
1676
1661
1648
1636
1623
1616
1605
1600
1592
1584
1578
1569
1563
1557
1552
1545
1534
1532
1525
1520
1513
1508
1497
1489
1483
1477
1472
1470
1467
1465
1467
1469
1473
1476
1482
1486
1488
1488
1488
1488
1483
1479
1473
1469
1461
1456
1456
1450
1447
1446
1443
1443
1443
1441
1443
1440
1439
1438
1434
1431
1427
1424
1424
1423
1421
1424
1424
1427
1438
1440
1447
1455
1456
1462
1465
1467
1467
1462
1460
1457
1455
1450
1446
1443
1442
1441
1443
1445
1445
1451
1454
1455
1456
1456
1456
1459
1460
1461
1459
1463
1466
1469
1472
1474
1479
1487
1488
1491
1493
1494
1499
1501
1503
1504
1506
1510
1513
1519
1523
1529
1535
1543
1550
1552
1552
1555
1556
1555
1553
1553
1552
1551
1549
1546
1547
1546
1549
1551
1549
1552
1552
1554
1557
1563
1566
1569
1574
1575
1581
1584
1585
1585
1586
1587
1587
1590
1586
1585
1584
1583
1582
1578
1575
1574
1572
1572
1573
1578
1579
1584
1584
1589
1594
1600
1601
1603
1606
1609
1606
1607
1603
1601
1600
1596
1593
1593
1589
1588
1591
1591
1594
1590
1591
1587
1586
1584
1582
1575
1572
1569
1569
1566
1563
1564
1565
1568
1569
1571
1572
1573
1576
1579
1580
1581
1583
1581
1577
1573
1569
1561
1555
1550
1542
1533
1526
1521
1520
1520
1520
1522
1526
1529
1534
1545
1550
1552
1553
1557
1558
1558
1561
1558
1553
1553
1552
1552
1552
1552
1553
1555
1557
1561
1565
1568
1567
1569
1567
1564
1558
1552
1546
1535
1529
1528
1521
1515
1520
1520
1520
1527
1533
1543
1551
1552
1553
1553
1553
1552
1546
1548
1545
1535
1512
1531
1527
1527
1527
1529
1541
1547
1554
1567
1577
1587
1596
1603
1611
1616
1618
1624
1621
1617
1617
1619
1617
1617
1617
1618
1621
1628
1635
1643
1655
1665
1680
1690
1702
1717
1730
1740
1750
1755
1759
1758
1751
1740
1727
1708
1681
1659
1637
1614
1595
1582
1565
1555
1547
1549
1550
1550
1553
1557
1566
1573
1574
1578
1580
1582
1577
1570
1564
1553
1543
1527
1520
1510
1501
1497
1490
1488
1488
1488
1486
1487
1486
1485
1485
1487
1487
1485
1486
1485
1488
1487
1486
1485
1485
1487
1488
1489
1490
1494
1501
1504
1509
1515
1518
1520
1522
1526
1531
1534
1542
1541
1542
1535
1533
1531
1523
1519
1513
1504
1504
1501
1501
1503
1506
1511
1515
1521
1523
1530
1535
1545
1552
1552
1552
1551
1549
1543
1525
1511
1491
1473
1449
1422
1392
1361
1335
1309
1287
1269
1264
1264
1278
1303
1347
1402
1474
1566
1667
1783
1909
2054
2207
2373
2559
2758
2971
3201
3441
3688
3705
3703
3706
3703
3703
3709
3709
3707
3701
3706
3707
3707
3702
3599
3379
3093
2736
2323
1872
1417
1004
663
404
234
144
144
229
382
598
855
1136
1418
1689
1919
2094
2199
2250
2243
2186
2095
1968
1827
1687
1559
1449
1370
1323
1306
1316
1350
1404
1473
1551
1621
1686
1738
1776
1801
1809
1803
1789
1759
1728
1692
1654
1622
1600
1582
1568
1565
1565
1575
1586
1603
1621
1639
1657
1670
1680
1686
1689
1690
1685
1680
1675
1667
1663
1659
1654
1651
1653
1657
1663
1666
1670
1680
1682
1686
1693
1694
1695
1694
1694
1690
1684
1682
1680
1681
1680
1683
1687
1696
1707
1716
1728
1741
1751
1766
1775
1781
1787
1791
1792
1792
1792
1787
1786
1778
1776
1776
1776
1779
1787
1792
1803
1809
1821
1827
1835
1840
1843
1845
1849
1850
1849
1848
1847
1852
1853
1856
1860
1871
1876
1888
1901
1910
1925
1936
1947
1958
1968
1973
1979
1982
1983
1985
1982
1984
1981
1984
1985
1991
2000
2010
2022
2032
2051
2064
2078
2091
2096
2108
2112
2115
2119
2117
2119
2112
2112
2107
2103
2100
2102
2096
2096
2098
2102
2107
2112
2114
2125
2128
2134
2141
2147
2150
2150
2152
2145
2138
2135
2127
2121
2112
2106
2102
2096
2094
2087
2083
2079
2070
2064
2057
2041
2032
2016
2001
1985
1967
1951
1933
1916
1895
1874
1857
1840
1824
1807
1792
1775
1762
1747
1735
1723
1712
1702
1691
1680
1666
1659
1648
1638
1630
1617
1611
1604
1599
1587
1584
1579
1567
1558
1552
1545
1529
1520
1514
1505
1491
1488
1485
1479
1475
1472
1472
1473
1473
1472
1473
1472
1472
1473
1474
1472
1472
1471
1470
1466
1463
1459
1457
1456
1450
1445
1440
1434
1430
1424
1423
1418
1417
1411
1413
1415
1413
1415
1419
1424
1425
1434
1442
1447
1455
1457
1466
1471
1472
1472
1477
1473
1476
1474
1473
1469
1465
1461
1456
1450
1443
1439
1437
1431
1433
1433
1437
1443
1449
1456
1467
1472
1478
1488
1490
1495
1499
1499
1499
1494
1493
1489
1488
1486
1484
1485
1483
1485
1488
1494
1504
1508
1517
1521
1525
1525
1527
1530
1530
1526
1527
1525
1527
1525
1532
1541
1546
1548
1556
1562
1567
1559
1569
1567
1564
1567
1559
1559
1552
1553
1550
1555
1556
1558
1563
1568
1570
1574
1575
1576
1575
1575
1571
1569
1566
1563
1558
1554
1555
1557
1555
1563
1569
1579
1585
1594
1600
1605
1615
1618
1618
1619
1617
1615
1608
1600
1596
1584
1577
1568
1566
1559
1558
1559
1561
1569
1573
1579
1584
1592
1598
1600
1601
1601
1604
1603
1601
1599
1596
1589
1584
1583
1580
1575
1572
1573
1570
1573
1575
1579
1581
1584
1584
1584
1584
1585
1584
1582
1580
1577
1571
1567
1563
1557
1553
1552
1550
1550
1547
1549
1549
1549
1552
1552
1554
1559
1558
1563
1562
1562
1561
1558
1553
1552
1552
1551
1552
1550
1546
1545
1545
1545
1547
1546
1549
1549
1552
1550
1552
1550
1548
1546
1542
1533
1533
1533
1530
1526
1527
1528
1527
1529
1533
1535
1545
1552
1552
1553
1555
1555
1557
1551
1549
1545
1545
1542
1534
1542
1541
1546
1550
1552
1552
1556
1557
1563
1563
1567
1565
1567
1570
1562
1562
1562
1554
1555
1552
1552
1550
1550
1552
1550
1552
1552
1551
1552
1552
1551
1548
1547
1546
1541
1542
1539
1543
1550
1551
1552
1554
1558
1564
1563
1566
1567
1567
1569
1567
1566
1561
1561
1558
1554
1555
1553
1553
1554
1555
1555
1558
1563
1569
1567
1570
1570
1572
1574
1571
1569
1571
1566
1565
1558
1554
1552
1547
1549
1541
1535
1535
1533
1530
1531
1530
1530
1531
1533
1530
1531
1534
1540
1546
1550
1552
1557
1567
1575
1582
1591
1601
1607
1616
1616
1620
1619
1619
1618
1616
1614
1610
1604
1605
1604
1605
1607
1610
1616
1618
1625
1633
1641
1650
1656
1664
1677
1687
1705
1713
1726
1737
1741
1744
1744
1742
1731
1718
1707
1683
1666
1648
1634
1619
1605
1600
1598
1594
1597
1595
1600
1600
1602
1607
1603
1605
1604
1604
1604
1600
1597
1595
1591
1589
1584
1584
1579
1574
1569
1564
1557
1552
1543
1531
1523
1519
1510
1505
1506
1501
1501
1502
1504
1506
1510
1516
1520
1521
1530
1533
1535
1535
1541
1546
1545
1549
1547
1550
1553
1552
1555
1559
1563
1568
1567
1569
1571
1573
1575
1574
1576
1573
1571
1570
1561
1558
1556
1552
1556
1552
1552
1555
1559
1570
1567
1570
1574
1573
1570
1562
1552
1531
1509
1486
1460
1426
1398
1371
1348
1327
1313
1310
1317
1338
1372
1424
1488
1578
1677
1789
1915
2062
2215
2385
2576
2779
2997
3238
3486
3707
3704
3703
3705
3709
3703
3706
3703
3707
3707
3703
3707
3706
3703
3711
3583
3361
3058
2695
2283
1834
1392
994
679
441
294
229
247
348
521
734
982
1254
1520
1774
1968
2113
2197
2224
2202
2131
2029
1905
1776
1649
1533
1445
1385
1351
1347
1366
1410
1463
1527
1600
1661
1716
1757
1788
1807
1808
1797
1777
1750
1723
1683
1652
1621
1597
1582
1563
1554
1553
1559
1573
1591
1600
1620
1643
1654
1669
1681
1696
1702
1699
1703
1696
1701
1689
1683
1678
1669
1675
1671
1665
1673
1678
1681
1685
1693
1697
1705
1709
1712
1715
1721
1725
1728
1729
1731
1732
1734
1730
1731
1733
1731
1733
1731
1730
1735
1738
1744
1750
1759
1773
1776
1781
1788
1795
1803
1802
1806
1808
1808
1814
1814
1817
1820
1824
1837
1837
1841
1845
1851
1856
1859
1865
1867
1869
1872
1870
1868
1871
1871
1874
1877
1884
1890
1903
1911
1920
1936
1946
1959
1975
1982
1988
2000
2003
2015
2014
2019
2022
2026
2031
2033
2034
2038
2046
2062
2065
2074
2083
2094
2099
2110
2112
2123
2128
2129
2132
2133
2135
2134
2135
2133
2128
2128
2128
2128
2128
2128
2128
2130
2139
2139
2145
2147
2150
2155
2149
2149
2146
2143
2141
2131
2128
2123
2117
2113
2109
2101
2097
2091
2086
2074
2064
2057
2038
2028
2015
2000
1987
1973
1959
1943
1929
1917
1901
1886
1870
1856
1840
1824
1809
1792
1776
1761
1744
1728
1711
1693
1679
1663
1649
1641
1633
1623
1618
1616
1616
1611
1611
1608
1603
1600
1591
1584
1570
1559
1545
1524
1513
1502
1490
1484
1479
1476
1475
1479
1482
1485
1486
1488
1489
1488
1488
1488
1482
1479
1472
1463
1456
1448
1442
1435
1431
1426
1425
1425
1427
1428
1433
1436
1441
1443
1446
1452
1451
1453
1453
1451
1451
1449
1445
1443
1443
1443
1445
1449
1451
1456
1456
1458
1463
1466
1464
1465
1461
1458
1456
1453
1450
1446
1447
1447
1451
1455
1458
1466
1472
1479
1487
1489
1499
1505
1507
1509
1508
1507
1505
1501
1496
1491
1488
1488
1488
1488
1489
1495
1499
1502
1506
1511
1511
1515
1516
1514
1508
1507
1505
1503
1504
1505
1507
1510
1516
1521
1529
1542
1550
1555
1562
1566
1572
1571
1576
1574
1573
1572
1570
1566
1565
1563
1563
1559
1559
1558
1558
1555
1558
1558
1559
1563
1563
1564
1566
1568
1568
1568
1573
1575
1574
1580
1580
1582
1583
1582
1583
1583
1584
1583
1581
1580
1582
1581
1580
1581
1581
1577
1577
1573
1570
1568
1563
1563
1558
1557
1554
1555
1554
1557
1557
1559
1558
1562
1561
1558
1558
1558
1554
1554
1552
1549
1547
1547
1547
1551
1553
1555
1559
1561
1565
1568
1572
1574
1574
1575
1570
1567
1569
1561
1558
1552
1552
1550
1547
1545
1545
1535
1535
1533
1531
1530
1529
1533
1533
1531
1533
1534
1535
1535
1535
1542
1541
1542
1543
1543
1545
1545
1546
1545
1546
1546
1546
1547
1547
1546
1543
1535
1535
1530
1523
1520
1517
1511
1510
1506
1506
1509
1511
1515
1520
1523
1531
1535
1543
1550
1551
1552
1552
1552
1550
1545
1535
1531
1525
1520
1520
1517
1517
1513
1513
1515
1520
1520
1521
1523
1527
1531
1535
1535
1533
1534
1535
1529
1531
1526
1524
1521
1520
1520
1519
1520
1520
1518
1518
1517
1516
1517
1516
1515
1514
1519
1520
1520
1520
1520
1520
1521
1520
1521
1521
1522
1523
1525
1527
1530
1533
1535
1543
1542
1541
1543
1535
1535
1535
1531
1527
1531
1528
1534
1524
1535
1535
1530
1535
1542
1535
1531
1529
1541
1527
1529
1526
1526
1523
1527
1525
1526
1534
1534
1546
1547
1550
1550
1552
1552
1552
1552
1549
1543
1547
1548
1547
1545
1542
1546
1547
1542
1545
1548
1546
1552
1552
1556
1562
1557
1559
1563
1561
1563
1559
1565
1561
1563
1561
1570
1573
1584
1585
1598
1603
1610
1616
1622
1622
1627
1626
1625
1623
1622
1630
1633
1644
1650
1664
1677
1686
1703
1712
1722
1728
1727
1722
1712
1701
1681
1664
1645
1629
1613
1600
1590
1584
1584
1584
1585
1591
1600
1603
1610
1615
1616
1616
1616
1611
1603
1600
1590
1582
1569
1557
1549
1533
1523
1520
1508
1504
1499
1494
1490
1489
1490
1491
1492
1494
1499
1502
1509
1510
1513
1518
1520
1523
1525
1533
1535
1546
1549
1548
1551
1549
1550
1547
1544
1535
1531
1524
1520
1515
1509
1503
1497
1494
1489
1488
1489
1494
1499
1504
1511
1520
1525
1533
1543
1550
1552
1556
1558
1558
1561
1558
1558
1556
1555
1554
1552
1550
1535
1523
1509
1489
1467
1439
1413
1382
1351
1326
1299
1280
1270
1267
1280
1303
1342
1398
1467
1559
1663
1777
1904
2042
2203
2368
2547
2750
2960
3187
3425
3664
3705
3706
3708
3703
3702
3707
3705
3708
3707
3707
3703
3708
3706
3667
3496
3237
2899
2501
2074
1616
1186
818
539
337
229
202
259
392
590
823
1088
1351
1611
1828
1995
2108
2154
2150
2099
2006
1891
1769
1643
1521
1429
1361
1328
1314
1328
1363
1415
1476
1551
1616
1671
1719
1756
1776
1781
1777
1759
1733
1706
1675
1648
1617
1599
1586
1578
1577
1581
1587
1600
1616
1627
1641
1649
1659
1662
1663
1662
1655
1652
1646
1643
1634
1632
1627
1629
1631
1634
1639
1648
1658
1666
1678
1683
1695
1707
1711
1717
1721
1726
1726
1727
1725
1722
1721
1718
1716
1714
1715
1714
1719
1719
1726
1724
1725
1728
1729
1734
1739
1744
1746
1751
1757
1763
1767
1776
1777
1782
1785
1786
1789
1787
1787
1788
1787
1783
1785
1789
1792
1798
1805
1808
1821
1832
1845
1856
1871
1885
1897
1907
1919
1923
1933
1936
1938
1941
1942
1937
1937
1937
1938
1936
1938
1942
1950
1955
1965
1969
1981
1989
2000
2008
2014
2023
2029
2032
2035
2039
2042
2043
2042
2046
2047
2050
2054
2057
2060
2064
2068
2076
2083
2095
2101
2110
2115
2123
2127
2127
2128
2128
2128
2123
2117
2113
2110
2102
2096
2086
2080
2074
2066
2064
2054
2044
2037
2031
2022
2013
2001
1994
1984
1974
1964
1951
1940
1932
1920
1910
1904
1891
1882
1872
1867
1856
1843
1835
1820
1806
1791
1776
1760
1744
1730
1715
1706
1694
1683
1677
1669
1659
1649
1645
1634
1623
1615
1604
1596
1584
1570
1558
1548
1531
1521
1515
1509
1506
1502
1499
1497
1494
1489
1488
1483
1479
1472
1465
1459
1456
1451
1443
1450
1439
1438
1437
1441
1443
1447
1451
1456
1456
1458
1462
1463
1466
1461
1460
1456
1450
1443
1433
1433
1423
1413
1418
1414
1412
1413
1419
1421
1424
1430
1431
1428
1425
1424
1418
1418
1415
1416
1412
1412
1417
1418
1424
1433
1436
1440
1455
1456
1456
1456
1457
1457
1453
1448
1442
1433
1427
1424
1421
1419
1422
1424
1429
1441
1449
1459
1466
1473
1485
1488
1493
1498
1500
1502
1501
1500
1498
1493
1491
1493
1488
1489
1491
1496
1499
1509
1514
1520
1523
1526
1530
1535
1533
1533
1532
1527
1521
1520
1515
1515
1513
1514
1518
1520
1524
1531
1542
1550
1554
1563
1571
1577
1583
1584
1582
1581
1575
1569
1561
1554
1550
1546
1543
1535
1541
1545
1549
1553
1562
1568
1576
1583
1587
1590
1593
1595
1594
1594
1587
1586
1584
1583
1584
1584
1584
1584
1584
1585
1586
1587
1585
1585
1585
1584
1577
1573
1568
1562
1559
1554
1552
1552
1553
1553
1554
1561
1562
1563
1563
1559
1559
1552
1551
1543
1535
1531
1522
1520
1520
1519
1520
1522
1527
1530
1535
1548
1552
1555
1557
1559
1563
1563
1564
1563
1561
1559
1558
1554
1554
1552
1551
1549
1546
1541
1541
1531
1531
1530
1526
1525
1523
1521
1520
1520
1517
1518
1517
1518
1519
1520
1520
1523
1526
1527
1531
1531
1534
1535
1535
1535
1535
1535
1535
1535
1535
1535
1540
1543
1544
1543
1543
1543
1534
1531
1523
1520
1515
1507
1503
1499
1496
1494
1491
1494
1494
1499
1502
1509
1518
1521
1531
1535
1550
1552
1554
1559
1561
1562
1558
1562
1553
1549
1542
1531
1520
1509
1501
1491
1487
1482
1476
1477
1482
1486
1489
1495
1507
1518
1524
1535
1547
1551
1555
1555
1554
1552
1552
1552
1548
1546
1543
1535
1535
1531
1534
1533
1534
1534
1533
1529
1529
1523
1520
1511
1505
1499
1491
1488
1488
1488
1488
1487
1488
1492
1495
1503
1507
1516
1520
1526
1533
1547
1551
1553
1557
1565
1566
1568
1570
1567
1567
1565
1562
1559
1552
1552
1547
1541
1533
1531
1530
1525
1526
1525
1526
1529
1529
1533
1533
1535
1543
1541
1547
1549
1552
1552
1552
1552
1552
1550
1546
1535
1531
1520
1514
1505
1501
1498
1494
1495
1502
1513
1522
1542
1555
1569
1581
1590
1600
1602
1606
1610
1607
1606
1603
1600
1597
1594
1593
1593
1593
1594
1593
1596
1600
1600
1605
1610
1617
1626
1645
1653
1669
1680
1694
1708
1714
1718
1719
1714
1711
1700
1686
1675
1660
1648
1633
1620
1615
1607
1600
1594
1587
1584
1584
1583
1584
1585
1589
1589
1594
1596
1595
1595
1594
1590
1588
1584
1581
1575
1570
1563
1557
1552
1546
1533
1522
1515
1505
1491
1487
1482
1479
1475
1478
1482
1488
1493
1502
1510
1520
1521
1524
1523
1521
1520
1519
1515
1510
1504
1501
1502
1500
1501
1504
1507
1510
1515
1519
1520
1521
1525
1529
1529
1527
1530
1531
1529
1527
1529
1533
1535
1546
1552
1552
1557
1561
1565
1567
1565
1565
1564
1563
1553
1550
1544
1530
1517
1495
1474
1452
1423
1392
1365
1340
1314
1295
1283
1280
1282
1297
1331
1373
1431
1505
1596
1691
1811
1939
2094
2253
2425
2623
2834
3056
3301
3538
3703
3703
3703
3704
3703
3705
3706
3703
3703
3705
3703
3702
3669
3504
3247
2912
2509
2066
1590
1149
770
473
270
156
130
194
339
547
800
1076
1357
1623
1844
2000
2096
2116
2082
1989
1866
1719
1568
1422
1300
1216
1158
1137
1152
1195
1264
1354
1454
1555
1651
1730
1791
1831
1851
1846
1827
1794
1751
1707
1658
1616
1579
1550
1522
1514
1515
1518
1534
1557
1584
1606
1630
1654
1673
1685
1695
1697
1696
1691
1680
1670
1662
1650
1642
1634
1629
1627
1629
1634
1643
1648
1657
1665
1674
1682
1693
1699
1703
1712
1712
1712
1709
1707
1701
1693
1686
1685
1681
1680
1681
1686
1692
1705
1712
1722
1732
1743
1754
1762
1767
1774
1776
1777
1778
1777
1781
1782
1786
1789
1792
1799
1806
1810
1819
1822
1827
1833
1834
1839
1838
1836
1839
1838
1837
1836
1839
1839
1840
1843
1845
1856
1860
1866
1872
1877
1884
1889
1893
1899
1904
1909
1912
1921
1923
1933
1940
1951
1958
1968
1976
1984
1993
2000
2008
2015
2020
2027
2029
2027
2028
2031
2031
2030
2031
2032
2035
2041
2047
2059
2066
2070
2083
2092
2100
2106
2109
2112
2112
2110
2106
2099
2095
2086
2073
2064
2055
2038
2032
2024
2014
2011
2007
2005
2003
2002
2003
2006
2011
2007
2007
2003
2000
1993
1985
1973
1962
1945
1929
1909
1891
1872
1856
1839
1821
1807
1792
1776
1767
1755
1744
1734
1727
1717
1711
1703
1696
1691
1680
1674
1666
1662
1655
1648
1641
1632
1628
1616
1612
1600
1591
1585
1579
1571
1562
1552
1543
1531
1520
1510
1499
1489
1483
1472
1469
1463
1463
1461
1462
1471
1471
1475
1481
1484
1486
1487
1488
1485
1483
1476
1472
1468
1461
1459
1456
1456
1454
1455
1453
1453
1453
1454
1452
1450
1447
1442
1439
1434
1431
1425
1423
1421
1421
1423
1424
1425
1430
1439
1442
1449
1450
1454
1458
1460
1461
1462
1465
1464
1465
1462
1462
1458
1456
1455
1451
1445
1443
1439
1440
1441
1443
1447
1452
1457
1463
1472
1480
1486
1490
1498
1503
1505
1510
1510
1513
1514
1518
1517
1520
1520
1520
1521
1525
1527
1527
1524
1525
1523
1520
1519
1518
1520
1520
1521
1525
1530
1542
1547
1552
1553
1559
1562
1565
1568
1568
1567
1567
1566
1564
1565
1564
1563
1564
1567
1571
1571
1577
1581
1584
1584
1585
1586
1587
1585
1584
1583
1583
1581
1579
1581
1584
1584
1586
1594
1600
1602
1612
1615
1617
1616
1618
1617
1616
1614
1607
1602
1598
1595
1587
1584
1580
1577
1575
1578
1578
1578
1581
1584
1584
1585
1584
1584
1584
1583
1574
1567
1561
1553
1551
1543
1534
1534
1535
1545
1550
1555
1566
1575
1584
1591
1600
1606
1609
1612
1610
1603
1600
1593
1584
1577
1567
1559
1552
1550
1545
1543
1542
1546
1551
1552
1552
1553
1554
1554
1553
1552
1549
1547
1541
1530
1527
1525
1520
1520
1519
1517
1519
1520
1521
1525
1534
1547
1552
1559
1563
1565
1570
1570
1572
1570
1557
1556
1547
1549
1535
1531
1526
1523
1527
1522
1521
1522
1521
1521
1520
1520
1520
1518
1520
1520
1522
1520
1520
1523
1532
1546
1546
1552
1552
1554
1553
1553
1552
1552
1551
1546
1546
1531
1530
1527
1529
1526
1530
1533
1535
1543
1545
1549
1542
1541
1535
1535
1529
1525
1521
1520
1523
1522
1525
1530
1539
1547
1552
1556
1566
1568
1569
1570
1571
1571
1566
1565
1560
1554
1552
1551
1546
1535
1535
1530
1525
1524
1525
1525
1523
1525
1529
1533
1535
1545
1552
1552
1557
1563
1570
1575
1583
1585
1590
1595
1593
1598
1600
1600
1603
1602
1607
1613
1614
1616
1616
1615
1614
1610
1603
1603
1602
1601
1605
1611
1616
1630
1648
1664
1680
1699
1721
1734
1746
1752
1756
1754
1744
1728
1712
1689
1665
1645
1618
1600
1584
1574
1568
1567
1571
1577
1587
1600
1609
1618
1627
1630
1631
1629
1619
1610
1599
1584
1569
1553
1535
1522
1515
1506
1498
1494
1493
1494
1498
1499
1505
1509
1515
1520
1521
1527
1531
1534
1535
1535
1533
1535
1530
1525
1523
1522
1521
1522
1522
1526
1529
1531
1534
1541
1535
1534
1533
1527
1521
1519
1515
1517
1514
1518
1520
1521
1530
1542
1551
1557
1563
1570
1573
1573
1571
1570
1567
1560
1557
1552
1549
1546
1542
1535
1534
1531
1526
1520
1509
1493
1475
1456
1432
1408
1382
1357
1339
1328
1317
1319
1330
1360
1398
1455
1522
1614
1712
1834
1961
2112
2272
2449
2647
2859
3090
3328
3575
3706
3706
3703
3707
3706
3706
3707
3706
3705
3707
3706
3706
3706
3604
3391
3088
2715
2282
1808
1339
913
573
311
138
63
67
161
332
556
816
1094
1376
1639
1854
2007
2100
2123
2096
2011
1904
1773
1637
1502
1393
1314
1264
1248
1261
1297
1360
1437
1523
1615
1693
1755
1806
1838
1847
1842
1824
1791
1750
1712
1664
1626
1596
1573
1555
1552
1554
1566
1584
1601
1622
1646
1662
1675
1685
1694
1695
1694
1689
1680
1674
1667
1664
1660
1657
1658
1661
1665
1674
1681
1687
1695
1703
1712
1714
1712
1713
1712
1706
1707
1699
1696
1696
1694
1695
1701
1705
1712
1718
1727
1735
1743
1746
1752
1760
1761
1767
1769
1770
1775
1776
1775
1777
1779
1783
1792
1792
1794
1801
1807
1808
1813
1818
1821
1823
1823
1824
1822
1821
1819
1821
1819
1826
1831
1840
1845
1856
1867
1879
1893
1903
1910
1919
1924
1926
1930
1931
1931
1929
1927
1930
1933
1936
1941
1952
1962
1971
1985
1999
2011
2027
2035
2046
2063
2068
2076
2081
2084
2086
2087
2085
2085
2083
2084
2087
2088
2094
2096
2103
2112
2115
2125
2130
2137
2140
2140
2139
2135
2129
2122
2115
2109
2102
2096
2092
2087
2086
2084
2083
2083
2083
2082
2083
2082
2078
2075
2068
2064
2060
2046
2037
2030
2018
2007
1998
1987
1975
1968
1953
1940
1927
1912
1899
1878
1865
1842
1823
1805
1780
1763
1744
1729
1714
1705
1693
1680
1677
1667
1665
1659
1651
1647
1635
1625
1616
1607
1600
1590
1582
1572
1564
1557
1551
1542
1535
1529
1526
1523
1520
1518
1513
1509
1505
1503
1494
1492
1488
1483
1475
1472
1463
1459
1456
1447
1446
1438
1435
1430
1438
1435
1435
1443
1449
1449
1453
1451
1451
1446
1441
1439
1430
1424
1424
1422
1419
1424
1424
1424
1435
1443
1451
1453
1456
1463
1466
1469
1471
1469
1470
1466
1462
1458
1454
1449
1444
1441
1439
1437
1437
1436
1437
1443
1444
1449
1455
1456
1456
1457
1460
1459
1459
1461
1463
1467
1467
1470
1472
1475
1479
1482
1485
1488
1489
1489
1491
1491
1490
1490
1491
1495
1495
1495
1501
1507
1511
1518
1521
1525
1527
1531
1531
1531
1531
1531
1532
1529
1527
1529
1530
1531
1533
1535
1541
1544
1547
1549
1552
1552
1551
1552
1552
1552
1554
1557
1555
1556
1557
1559
1560
1558
1558
1557
1561
1559
1562
1561
1565
1568
1569
1569
1571
1569
1569
1568
1566
1562
1562
1559
1555
1552
1552
1550
1550
1551
1552
1554
1557
1563
1570
1578
1581
1586
1590
1595
1595
1591
1590
1585
1583
1578
1571
1567
1559
1554
1552
1549
1546
1546
1545
1545
1545
1546
1550
1552
1552
1552
1555
1553
1553
1554
1554
1554
1552
1553
1552
1552
1550
1552
1550
1552
1551
1551
1547
1548
1543
1535
1532
1525
1524
1521
1520
1520
1523
1524
1525
1531
1535
1541
1535
1544
1535
1535
1533
1530
1523
1520
1520
1518
1514
1514
1507
1510
1511
1517
1521
1523
1531
1541
1545
1552
1552
1553
1553
1552
1552
1548
1547
1542
1535
1533
1532
1535
1532
1532
1531
1532
1533
1533
1530
1535
1535
1533
1533
1535
1535
1542
1542
1545
1549
1549
1552
1552
1553
1552
1555
1554
1555
1553
1553
1550
1550
1545
1535
1533
1533
1527
1528
1528
1523
1526
1527
1525
1529
1533
1531
1535
1542
1547
1551
1551
1552
1552
1552
1552
1550
1545
1542
1534
1530
1523
1521
1521
1521
1520
1523
1524
1529
1531
1543
1545
1549
1552
1551
1552
1552
1549
1550
1550
1550
1552
1552
1557
1561
1571
1582
1587
1600
1611
1622
1633
1642
1648
1651
1653
1651
1648
1648
1646
1638
1638
1637
1641
1648
1657
1667
1681
1698
1712
1722
1728
1731
1731
1728
1719
1707
1690
1668
1650
1631
1613
1596
1584
1571
1566
1558
1558
1561
1567
1573
1584
1587
1596
1600
1603
1606
1606
1605
1601
1597
1588
1582
1570
1557
1548
1530
1520
1505
1489
1479
1472
1465
1462
1459
1463
1469
1471
1477
1485
1488
1499
1505
1514
1520
1522
1526
1529
1532
1530
1529
1532
1527
1529
1530
1531
1530
1527
1529
1529
1526
1522
1520
1520
1515
1517
1518
1518
1519
1520
1521
1522
1525
1527
1530
1533
1533
1538
1535
1535
1542
1545
1543
1550
1549
1549
1547
1542
1533
1520
1503
1485
1456
1424
1394
1360
1328
1299
1280
1266
1266
1282
1312
1360
1424
1504
1602
1712
1836
1967
2114
2271
2441
2626
2826
3034
3264
3495
3702
3703
3703
3705
3701
3703
3704
3703
3703
3703
3703
3702
3707
3702
3637
3444
3181
2838
2437
1997
1547
1122
763
483
288
180
157
226
362
564
809
1083
1360
1632
1866
2045
2165
2224
2224
2171
2080
1951
1808
1669
1535
1427
1351
1306
1291
1306
1345
1408
1478
1565
1643
1710
1769
1815
1841
1851
1843
1823
1789
1747
1710
1664
1622
1594
1569
1552
1547
1550
1554
1563
1595
1607
1616
1645
1656
1668
1675
1680
1682
1681
1681
1680
1678
1678
1679
1679
1680
1684
1691
1699
1703
1711
1715
1715
1718
1717
1712
1709
1710
1704
1699
1696
1693
1693
1691
1695
1699
1707
1713
1722
1731
1744
1751
1761
1768
1776
1781
1787
1791
1790
1790
1791
1791
1791
1791
1793
1792
1795
1797
1803
1805
1809
1811
1819
1823
1825
1824
1823
1826
1822
1824
1825
1827
1831
1838
1846
1854
1866
1877
1892
1904
1914
1927
1936
1943
1955
1963
1968
1968
1973
1973
1977
1979
1982
1982
1986
1995
2000
2004
2014
2021
2029
2034
2042
2053
2063
2065
2073
2079
2086
2092
2096
2103
2112
2114
2122
2128
2135
2143
2149
2155
2160
2161
2163
2163
2160
2160
2158
2155
2150
2145
2146
2146
2147
2154
2155
2160
2164
2170
2174
2173
2172
2169
2164
2158
2144
2133
2118
2105
2088
2070
2058
2039
2028
2016
2004
2000
1995
1990
1984
1981
1971
1965
1952
1937
1922
1904
1878
1857
1837
1808
1788
1768
1747
1737
1723
1713
1709
1702
1692
1683
1677
1668
1659
1649
1635
1621
1608
1595
1581
1563
1552
1534
1522
1515
1505
1503
1500
1499
1498
1499
1504
1505
1505
1504
1501
1499
1495
1489
1488
1479
1477
1472
1467
1462
1461
1461
1458
1460
1462
1460
1465
1469
1467
1467
1463
1463
1459
1456
1450
1443
1438
1430
1424
1423
1419
1417
1417
1415
1419
1422
1424
1428
1433
1440
1441
1449
1452
1456
1459
1459
1465
1471
1475
1475
1482
1484
1486
1488
1488
1488
1488
1481
1475
1472
1464
1456
1450
1440
1438
1430
1429
1428
1426
1434
1441
1451
1464
1472
1485
1493
1502
1510
1516
1520
1520
1522
1521
1520
1520
1520
1520
1519
1518
1515
1516
1518
1517
1520
1519
1513
1518
1514
1513
1510
1510
1510
1509
1511
1517
1520
1529
1533
1543
1552
1556
1564
1568
1572
1574
1577
1573
1570
1568
1566
1560
1555
1553
1550
1546
1543
1544
1543
1547
1552
1552
1560
1566
1573
1579
1582
1584
1584
1585
1584
1582
1577
1577
1570
1567
1565
1567
1567
1567
1570
1571
1570
1569
1566
1562
1558
1553
1552
1552
1551
1551
1552
1553
1559
1559
1565
1571
1574
1582
1584
1584
1589
1590
1593
1591
1590
1586
1584
1579
1573
1567
1563
1559
1555
1552
1552
1552
1555
1555
1557
1563
1566
1568
1570
1571
1571
1571
1568
1566
1563
1555
1552
1545
1541
1527
1523
1519
1516
1514
1514
1516
1519
1523
1526
1535
1546
1552
1555
1559
1563
1559
1556
1554
1552
1549
1545
1542
1542
1545
1545
1547
1550
1551
1547
1545
1535
1534
1527
1522
1517
1515
1510
1513
1510
1514
1518
1520
1522
1529
1535
1542
1545
1551
1550
1550
1524
1549
1545
1543
1535
1531
1533
1533
1533
1533
1534
1542
1543
1542
1543
1545
1543
1545
1543
1541
1545
1530
1531
1535
1535
1540
1534
1541
1533
1535
1541
1546
1547
1550
1552
1553
1558
1562
1565
1557
1564
1559
1553
1554
1549
1534
1531
1522
1516
1517
1511
1511
1512
1517
1520
1526
1535
1547
1558
1568
1578
1584
1589
1591
1593
1593
1591
1590
1589
1589
1590
1595
1596
1599
1602
1607
1607
1613
1612
1616
1616
1617
1621
1626
1635
1646
1655
1669
1681
1697
1710
1719
1729
1732
1734
1728
1722
1712
1699
1680
1664
1648
1630
1614
1600
1587
1582
1571
1571
1566
1568
1569
1572
1578
1582
1583
1584
1584
1580
1580
1573
1568
1561
1554
1550
1535
1526
1519
1511
1501
1493
1488
1486
1485
1486
1488
1489
1495
1501
1506
1514
1520
1520
1521
1520
1519
1513
1504
1494
1488
1479
1473
1471
1470
1471
1472
1477
1487
1494
1504
1511
1520
1525
1529
1531
1531
1526
1523
1520
1515
1510
1509
1506
1506
1509
1509
1517
1520
1524
1533
1533
1544
1543
1547
1543
1533
1526
1522
1515
1501
1488
1472
1455
1430
1408
1381
1356
1331
1309
1293
1274
1269
1275
1295
1326
1371
1434
1510
1607
1715
1840
1974
2128
2291
2473
2668
2879
3106
3343
3594
3703
3703
3706
3705
3702
3705
3705
3702
3707
3703
3703
3705
3706
3706
3619
3408
3131
2783
2378
1936
1483
1075
734
473
299
208
203
276
425
629
873
1140
1409
1668
1887
2055
2160
2207
2202
2147
2063
1939
1809
1680
1561
1456
1383
1338
1319
1327
1354
1402
1458
1523
1591
1648
1699
1732
1760
1767
1762
1747
1727
1697
1666
1637
1611
1589
1572
1563
1557
1559
1567
1582
1590
1603
1616
1629
1642
1648
1649
1650
1649
1649
1647
1643
1637
1636
1634
1637
1637
1641
1649
1654
1664
1664
1675
1679
1680
1681
1680
1680
1679
1676
1677
1670
1666
1669
1670
1675
1679
1681
1691
1699
1705
1712
1716
1723
1725
1728
1729
1730
1728
1729
1728
1727
1727
1725
1728
1728
1732
1741
1745
1754
1765
1773
1785
1792
1801
1809
1818
1828
1837
1840
1845
1847
1851
1852
1855
1855
1856
1856
1857
1861
1866
1869
1875
1878
1886
1890
1893
1899
1902
1904
1904
1904
1905
1909
1914
1921
1930
1936
1954
1967
1979
1991
2005
2021
2033
2045
2057
2064
2066
2068
2073
2069
2071
2067
2066
2067
2067
2065
2069
2067
2070
2074
2076
2082
2088
2093
2098
2107
2113
2122
2124
2128
2128
2128
2126
2118
2112
2107
2095
2087
2078
2069
2064
2064
2060
2055
2054
2051
2051
2042
2035
2031
2019
2005
1996
1984
1968
1953
1936
1920
1904
1888
1875
1862
1849
1837
1819
1805
1791
1775
1759
1743
1727
1712
1697
1680
1669
1658
1647
1638
1627
1616
1610
1600
1590
1584
1575
1571
1563
1553
1550
1543
1531
1529
1520
1517
1509
1501
1492
1485
1473
1461
1452
1441
1429
1422
1411
1407
1405
1403
1402
1406
1411
1419
1425
1434
1441
1451
1456
1458
1461
1457
1456
1456
1453
1445
1439
1431
1424
1423
1417
1411
1408
1407
1406
1406
1403
1405
1405
1408
1410
1415
1424
1426
1431
1435
1437
1441
1438
1438
1439
1435
1432
1427
1434
1431
1426
1426
1430
1434
1433
1445
1443
1450
1452
1456
1456
1456
1455
1449
1451
1446
1441
1440
1434
1439
1442
1443
1441
1449
1450
1455
1457
1459
1462
1463
1467
1470
1468
1472
1472
1476
1478
1483
1488
1492
1494
1501
1503
1506
1509
1510
1513
1515
1517
1518
1518
1519
1520
1519
1518
1515
1517
1514
1515
1514
1514
1518
1519
1520
1523
1526
1527
1534
1534
1541
1545
1548
1552
1552
1552
1552
1552
1552
1552
1550
1546
1546
1542
1535
1535
1534
1531
1530
1529
1526
1527
1530
1529
1527
1526
1529
1531
1534
1542
1545
1551
1552
1553
1552
1554
1553
1552
1551
1543
1535
1530
1521
1518
1512
1506
1502
1500
1496
1499
1502
1504
1509
1515
1520
1526
1531
1535
1543
1545
1545
1543
1543
1533
1529
1523
1520
1517
1507
1504
1497
1491
1493
1488
1489
1491
1491
1501
1503
1504
1511
1512
1517
1519
1515
1515
1509
1507
1503
1497
1493
1487
1488
1485
1485
1485
1483
1488
1488
1491
1494
1497
1504
1506
1507
1511
1510
1513
1513
1510
1509
1507
1506
1501
1500
1497
1495
1494
1495
1495
1497
1501
1501
1503
1509
1507
1505
1509
1507
1505
1503
1494
1495
1492
1489
1486
1485
1484
1484
1483
1483
1486
1488
1488
1489
1491
1490
1494
1491
1490
1494
1491
1490
1491
1490
1493
1493
1494
1497
1498
1498
1498
1498
1495
1494
1495
1490
1489
1488
1488
1488
1488
1490
1497
1502
1508
1518
1522
1530
1535
1547
1552
1555
1561
1559
1566
1567
1566
1565
1564
1562
1559
1558
1559
1562
1566
1570
1575
1584
1594
1601
1614
1627
1644
1657
1669
1680
1686
1691
1690
1685
1680
1669
1658
1643
1627
1612
1598
1584
1569
1556
1552
1545
1540
1534
1531
1533
1529
1531
1531
1531
1531
1527
1525
1522
1520
1515
1514
1509
1506
1503
1500
1498
1494
1488
1483
1474
1471
1460
1456
1451
1445
1441
1439
1436
1435
1438
1440
1440
1441
1443
1443
1446
1447
1451
1452
1454
1455
1456
1457
1459
1461
1462
1463
1467
1470
1471
1472
1472
1475
1477
1477
1480
1481
1481
1482
1478
1479
1482
1479
1478
1479
1478
1483
1487
1488
1488
1491
1493
1498
1498
1495
1493
1488
1479
1467
1451
1428
1401
1369
1341
1310
1279
1255
1232
1216
1209
1214
1226
1259
1297
1355
1426
1514
1618
1729
1856
1991
2144
2307
2482
2679
2886
3116
3345
3583
3702
3707
3705
3703
3700
3703
3703
3703
3701
3706
3706
3702
3705
3590
3376
3088
2736
2320
1890
1442
1040
713
464
304
223
230
314
463
670
908
1165
1415
1651
1845
1981
2064
2089
2064
1993
1898
1782
1664
1552
1455
1378
1329
1307
1303
1328
1365
1418
1475
1542
1600
1648
1680
1709
1718
1721
1712
1694
1673
1648
1621
1599
1576
1555
1542
1530
1526
1527
1533
1549
1554
1563
1571
1579
1584
1591
1598
1599
1601
1601
1604
1606
1606
1607
1609
1609
1610
1611
1607
1616
1607
1615
1616
1615
1616
1618
1621
1618
1626
1625
1629
1630
1634
1642
1645
1651
1651
1658
1664
1664
1670
1667
1674
1676
1669
1675
1679
1679
1683
1689
1697
1703
1703
1710
1710
1712
1712
1713
1715
1718
1715
1721
1728
1733
1744
1747
1757
